t_sec,ecg
0.0,0.05047761467329936
0.006667,0.499801629688406
0.013333,0.0008545182653279214
0.02,0.10135196996978668
0.026667,0.00018311105685598315
0.033333,-0.00021362956633198035
0.04,-0.00021362956633198035
0.046667,0.2966704306161687
0.053333,0.07800531022064883
0.06,0.0005798516800439467
0.066667,0.3122959074678793
0.073333,-0.522598956266976
0.08,-0.2578203680532243
0.086667,-0.10937833796197394
0.093333,-0.06250190740684225
0.1,-0.06250190740684225
0.106667,-0.11719107638782922
0.113333,-0.19531846064638203
0.12,-0.21875667592394787
0.126667,-0.21875667592394787
0.133333,-0.17969298379467147
0.14,-0.13281655323953978
0.146667,-0.10156559953611866
0.153333,-0.07812738425855281
0.16,-0.07031464583269753
0.166667,-0.07031464583269753
0.173333,-0.07031464583269753
0.18,-0.06250190740684225
0.186667,-0.039063692129276406
0.193333,-0.015625476851710562
0.2,0.0
0.206667,0.01565599536118656
0.213333,0.03128147221289712
0.22,0.046906949064607684
0.226667,0.06253242591631825
0.233333,0.07815790276802881
0.24,0.07815790276802881
0.246667,0.07815790276802881
0.253333,0.06253242591631825
0.26,0.054719687490462965
0.266667,0.046906949064607684
0.273333,0.0390942106387524
0.28,0.02346873378704184
0.286667,3.051850947599719e-05
0.293333,-0.023407696768089847
0.3,-0.039063692129276406
0.306667,-0.04687643055513169
0.313333,-0.04687643055513169
0.32,-0.04687643055513169
0.326667,-0.04687643055513169
0.333333,-0.05468916898098697
0.34,-0.04687643055513169
0.346667,-0.04687643055513169
0.353333,-0.039063692129276406
0.36,-0.031250953703421125
0.366667,-0.039063692129276406
0.373333,-0.031250953703421125
0.38,-0.015625476851710562
0.386667,0.015625476851710562
0.393333,0.054719687490462965
0.4,0.07815790276802881
0.406667,0.08597064119388409
0.413333,0.07815790276802881
0.42,0.06253242591631825
0.426667,0.0390942106387524
0.433333,0.01565599536118656
0.44,-0.007782219916379284
0.446667,-0.031250953703421125
0.453333,0.031250953703421125
0.46,0.03128147221289712
0.466667,0.09378337961973937
0.473333,0.43754387035737174
0.48,-0.7578051087984863
0.486667,-0.2968535416730247
0.493333,-0.2968535416730247
0.5,-0.6093630787072359
0.506667,0.4922330393383587
0.513333,-0.3827936643574328
0.52,-0.6718955046235542
0.526667,-0.6718955046235542
0.533333,-0.500015259254738
0.54,-0.23438215277565844
0.546667,-0.14062929166539506
0.553333,-0.13281655323953978
0.56,-0.13281655323953978
0.566667,-0.14062929166539506
0.573333,-0.15625476851710562
0.58,-0.18750572222052675
0.586667,-0.18750572222052675
0.593333,-0.1718802453688162
0.6,-0.14062929166539506
0.606667,-0.10937833796197394
0.613333,-0.09375286111026337
0.62,-0.0859401226844081
0.626667,-0.07031464583269753
0.633333,-0.06250190740684225
0.64,-0.023438215277565844
0.646667,0.007812738425855281
0.653333,0.02346873378704184
0.66,0.0390942106387524
0.666667,0.054719687490462965
0.673333,0.07034516434217353
0.68,0.09378337961973937
0.686667,0.1250343333231605
0.693333,0.14065981017487106
0.7,0.15628528702658162
0.706667,0.17191076387829218
0.713333,0.17972350230414746
0.72,0.17972350230414746
0.726667,0.1640980254524369
0.733333,0.14065981017487106
0.74,0.10159611804559465
0.746667,0.07034516434217353
0.753333,0.046906949064607684
0.76,0.03128147221289712
0.766667,0.01565599536118656
0.773333,-0.015594958342234566
0.78,-0.039063692129276406
0.786667,-0.06250190740684225
0.793333,-0.07031464583269753
0.8,-0.07812738425855281
0.806667,-0.07812738425855281
0.813333,-0.0859401226844081
0.82,-0.07812738425855281
0.826667,-0.05468916898098697
0.833333,0.0
0.84,0.06253242591631825
0.846667,0.10940885647144993
0.853333,0.13284707174901578
0.86,0.1250343333231605
0.866667,0.09378337961973937
0.873333,0.06253242591631825
0.88,0.00784325693533128
0.886667,-0.03903317361980041
0.893333,-0.07031464583269753
0.9,-0.09375286111026337
0.906667,-0.10156559953611866
0.913333,0.06250190740684225
0.92,0.06253242591631825
0.926667,0.15628528702658162
0.933333,0.6094241157261879
0.94,-0.6249885555589465
0.946667,-0.21872615741447188
0.953333,-0.21872615741447188
0.96,-0.6874904629657888
0.966667,0.3281655323953978
0.973333,-0.3749809259315775
0.98,-0.554704428235725
0.986667,-0.554704428235725
0.993333,-0.3671987060151982
1.0,-0.17969298379467147
1.006667,-0.17969298379467147
1.013333,-0.23438215277565844
1.02,-0.2968840601825007
1.026667,-0.2968840601825007
1.033333,-0.2109439374980926
1.04,-0.07812738425855281
1.046667,-0.031250953703421125
1.053333,-0.031250953703421125
1.06,-0.039063692129276406
1.066667,-0.039063692129276406
1.073333,-0.031250953703421125
1.08,-0.023438215277565844
1.086667,0.0
1.093333,0.01565599536118656
1.1,0.0390942106387524
1.106667,0.06253242591631825
1.113333,0.08597064119388409
1.12,0.1250343333231605
1.126667,0.14847254860072634
1.133333,0.17191076387829218
1.14,0.17972350230414746
1.146667,0.18753624073000275
1.153333,0.18753624073000275
1.16,0.19534897915585803
1.166667,0.19534897915585803
1.173333,0.18753624073000275
1.18,0.17972350230414746
1.186667,0.17972350230414746
1.193333,0.18753624073000275
1.2,0.18753624073000275
1.206667,0.17972350230414746
1.213333,0.1640980254524369
1.22,0.13284707174901578
1.226667,0.10159611804559465
1.233333,0.07034516434217353
1.24,0.03128147221289712
1.246667,-0.007782219916379284
1.253333,-0.023438215277565844
1.26,-0.023438215277565844
1.266667,-0.007812738425855281
1.273333,0.015625476851710562
1.28,0.046906949064607684
1.286667,0.07815790276802881
1.293333,0.10940885647144993
1.3,0.14065981017487106
1.306667,0.14847254860072634
1.313333,0.13284707174901578
1.32,0.10159611804559465
1.326667,0.07034516434217353
1.333333,0.046906949064607684
1.34,0.02346873378704184
1.346667,0.00784325693533128
1.353333,-0.023407696768089847
1.36,-0.05468916898098697
1.366667,-0.07812738425855281
1.373333,-0.2031311990722373
1.38,-0.2031311990722373
1.386667,0.039063692129276406
1.393333,0.7031769768364513
1.4,-0.695303201391644
1.406667,-0.5234229560228278
1.413333,-0.5234229560228278
1.42,0.8438062685018464
1.426667,-0.32029175695059053
1.433333,-0.8515884884182257
1.44,-0.8515884884182257
1.446667,-0.6093935972167119
1.453333,-0.3359477523117771
1.46,-0.2578203680532243
1.466667,-0.2578203680532243
1.473333,-0.2578203680532243
1.48,-0.2031311990722373
1.486667,-0.13281655323953978
1.493333,-0.07812738425855281
1.5,-0.07812738425855281
1.506667,-0.11719107638782922
1.513333,-0.14062929166539506
1.52,-0.14844203009125034
1.526667,-0.13281655323953978
1.533333,-0.10937833796197394
1.54,-0.0859401226844081
1.546667,-0.07031464583269753
1.553333,-0.06250190740684225
1.56,-0.039063692129276406
1.566667,0.0
1.573333,0.0390942106387524
1.58,0.07815790276802881
1.586667,0.09378337961973937
1.593333,0.10940885647144993
1.6,0.1250343333231605
1.606667,0.13284707174901578
1.613333,0.14847254860072634
1.62,0.15628528702658162
1.626667,0.15628528702658162
1.633333,0.15628528702658162
1.64,0.14847254860072634
1.646667,0.14847254860072634
1.653333,0.14847254860072634
1.66,0.15628528702658162
1.666667,0.14847254860072634
1.673333,0.13284707174901578
1.68,0.09378337961973937
1.686667,0.07034516434217353
1.693333,0.054719687490462965
1.7,0.046906949064607684
1.706667,0.0390942106387524
1.713333,0.03128147221289712
1.72,0.02346873378704184
1.726667,0.02346873378704184
1.733333,0.054719687490462965
1.74,0.08597064119388409
1.746667,0.10940885647144993
1.753333,0.11722159489730521
1.76,0.1250343333231605
1.766667,0.13284707174901578
1.773333,0.13284707174901578
1.78,0.13284707174901578
1.786667,0.10940885647144993
1.793333,0.07034516434217353
1.8,0.02346873378704184
1.806667,-0.007782219916379284
1.813333,-0.039063692129276406
1.82,-0.06250190740684225
1.826667,-0.0859401226844081
1.833333,-0.09375286111026337
1.84,-0.06250190740684225
1.846667,0.007812738425855281
1.853333,0.4531693472090823
1.86,-0.7968688009277627
1.866667,-0.4140446180608539
1.873333,-0.4140446180608539
1.88,-0.9921872615741447
1.886667,-0.09372234260078738
1.893333,-0.6328318124942778
1.9,-0.6328318124942778
1.906667,-0.6172063356425672
1.913333,-0.4609515671254616
1.92,-0.23438215277565844
1.926667,-0.15625476851710562
1.933333,-0.15625476851710562
1.94,-0.1640675069429609
1.946667,-0.18750572222052675
1.953333,-0.21875667592394787
1.96,-0.23438215277565844
1.966667,-0.24219489120151372
1.973333,-0.24219489120151372
1.98,-0.21875667592394787
1.986667,-0.18750572222052675
1.993333,-0.1640675069429609
2.0,-0.14844203009125034
2.006667,-0.14062929166539506
2.013333,-0.13281655323953978
2.02,-0.1250038148136845
2.026667,-0.07812738425855281
2.033333,-0.023438215277565844
2.04,0.023438215277565844
2.046667,0.07815790276802881
2.053333,0.1250343333231605
2.06,0.17191076387829218
2.066667,0.22659993285927915
2.073333,0.26566362498855556
2.08,0.27347636341441084
2.086667,0.26566362498855556
2.093333,0.24222540971098971
2.1,0.22659993285927915
2.106667,0.21878719443342387
2.113333,0.2031617175817133
2.12,0.19534897915585803
2.126667,0.17972350230414746
2.133333,0.15628528702658162
2.14,0.14065981017487106
2.146667,0.1250343333231605
2.153333,0.10159611804559465
2.16,0.07815790276802881
2.166667,0.0390942106387524
2.173333,0.00784325693533128
2.18,-0.007782219916379284
2.186667,-0.015625476851710562
2.193333,-0.007812738425855281
2.2,0.015625476851710562
2.206667,0.054719687490462965
2.213333,0.10159611804559465
2.22,0.14847254860072634
2.226667,0.18753624073000275
2.233333,0.21878719443342387
2.24,0.23441267128513443
2.246667,0.22659993285927915
2.253333,0.17972350230414746
2.26,0.11722159489730521
2.266667,0.054719687490462965
2.273333,-0.007782219916379284
2.28,-0.07031464583269753
2.286667,-0.11719107638782922
2.293333,-0.15625476851710562
2.3,-0.14062929166539506
2.306667,0.04687643055513169
2.313333,0.5625476851710562
2.32,-0.7187414166692099
2.326667,-0.3359172338023011
2.333333,-0.3359172338023011
2.34,-0.8828089236121708
2.346667,0.00784325693533128
2.353333,-0.6015503402813807
2.36,-0.6484572893459883
2.366667,-0.6484572893459883
2.373333,-0.4687643055513169
2.38,-0.23438215277565844
2.386667,-0.1718802453688162
2.393333,-0.1718802453688162
2.4,-0.2031311990722373
2.406667,-0.27344584490493484
2.413333,-0.32032227546006653
2.42,-0.32032227546006653
2.426667,-0.2812585833307901
2.433333,-0.24219489120151372
2.44,-0.18750572222052675
2.446667,-0.1250038148136845
2.453333,-0.07812738425855281
2.46,-0.04687643055513169
2.466667,-0.023438215277565844
2.473333,-0.015625476851710562
2.48,0.031250953703421125
2.486667,0.07034516434217353
2.493333,0.08597064119388409
2.5,0.09378337961973937
2.506667,0.10159611804559465
2.513333,0.11722159489730521
2.52,0.14847254860072634
2.526667,0.17972350230414746
2.533333,0.2109744560075686
2.54,0.24222540971098971
2.546667,0.2812891018402661
2.553333,0.2969145786919767
2.56,0.2969145786919767
2.566667,0.26566362498855556
2.573333,0.23441267128513443
2.58,0.19534897915585803
2.586667,0.1640980254524369
2.593333,0.13284707174901578
2.6,0.09378337961973937
2.606667,0.06253242591631825
2.613333,0.046906949064607684
2.62,0.046906949064607684
2.626667,0.0390942106387524
2.633333,0.03128147221289712
2.64,0.03128147221289712
2.646667,0.02346873378704184
2.653333,0.03128147221289712
2.66,0.03128147221289712
2.666667,0.0390942106387524
2.673333,0.054719687490462965
2.68,0.06253242591631825
2.686667,0.054719687490462965
2.693333,0.046906949064607684
2.7,0.0390942106387524
2.706667,0.02346873378704184
2.713333,3.051850947599719e-05
2.72,-0.023407696768089847
2.726667,-0.039063692129276406
2.733333,-0.05468916898098697
2.74,-0.05468916898098697
2.746667,-0.06250190740684225
2.753333,-0.0859401226844081
2.76,-0.09375286111026337
2.766667,-0.09375286111026337
2.773333,0.2578203680532243
2.78,0.9766228217413861
2.786667,-0.6171758171330912
2.793333,-0.6171758171330912
2.8,-0.7421796319467757
2.806667,0.6250495925778985
2.813333,-0.20310068056276132
2.82,-0.5156407361064486
2.826667,-0.5156407361064486
2.833333,-0.4218878749961852
2.84,-0.3359477523117771
2.846667,-0.3359477523117771
2.853333,-0.3437604907376324
2.86,-0.3437604907376324
2.866667,-0.2890713217566454
2.873333,-0.19531846064638203
2.88,-0.1250038148136845
2.886667,-0.07812738425855281
2.893333,-0.04687643055513169
2.9,-0.015625476851710562
2.906667,0.0
2.913333,0.00784325693533128
2.92,0.00784325693533128
2.926667,0.00784325693533128
2.933333,0.00784325693533128
2.94,0.00784325693533128
2.946667,0.00784325693533128
2.953333,0.00784325693533128
2.96,0.00784325693533128
2.966667,0.00784325693533128
2.973333,0.01565599536118656
2.98,0.03128147221289712
2.986667,0.054719687490462965
2.993333,0.07034516434217353
3.0,0.09378337961973937
3.006667,0.10940885647144993
3.013333,0.13284707174901578
3.02,0.14847254860072634
3.026667,0.14847254860072634
3.033333,0.14065981017487106
3.04,0.1250343333231605
3.046667,0.10159611804559465
3.053333,0.06253242591631825
3.06,0.02346873378704184
3.066667,-0.023407696768089847
3.073333,-0.05468916898098697
3.08,-0.06250190740684225
3.086667,-0.07031464583269753
3.093333,-0.07031464583269753
3.1,-0.06250190740684225
3.106667,-0.039063692129276406
3.113333,-0.031250953703421125
3.12,-0.023438215277565844
3.126667,-0.023438215277565844
3.133333,-0.023438215277565844
3.14,-0.023438215277565844
3.146667,-0.007812738425855281
3.153333,0.007812738425855281
3.16,0.01565599536118656
3.166667,0.02346873378704184
3.173333,0.01565599536118656
3.18,3.051850947599719e-05
3.186667,-0.03122043519394513
3.193333,-0.07031464583269753
3.2,-0.11719107638782922
3.206667,-0.1640675069429609
3.213333,-0.23438215277565844
3.22,-0.23438215277565844
3.226667,-0.05468916898098697
3.233333,0.4531388286996063
3.24,-0.8437452314828944
3.246667,-0.48435926389355144
3.253333,-0.48435926389355144
3.26,-0.9609363078707236
3.266667,0.07815790276802881
3.273333,-0.6249885555589465
3.28,-0.8437757499923704
3.286667,-0.8437757499923704
3.293333,-0.7187719351786859
3.3,-0.4687643055513169
3.306667,-0.32032227546006653
3.313333,-0.2890713217566454
3.32,-0.2890713217566454
3.326667,-0.2968840601825007
3.333333,-0.2968840601825007
3.34,-0.22656941434980316
3.346667,-0.13281655323953978
3.353333,-0.1250038148136845
3.36,-0.11719107638782922
3.366667,-0.11719107638782922
3.373333,-0.11719107638782922
3.38,-0.11719107638782922
3.386667,-0.09375286111026337
3.393333,-0.07031464583269753
3.4,-0.031250953703421125
3.406667,0.0
3.413333,0.03128147221289712
3.42,0.07034516434217353
3.426667,0.10159611804559465
3.433333,0.14065981017487106
3.44,0.15628528702658162
3.446667,0.15628528702658162
3.453333,0.1640980254524369
3.46,0.1640980254524369
3.466667,0.17191076387829218
3.473333,0.17972350230414746
3.48,0.18753624073000275
3.486667,0.19534897915585803
3.493333,0.2031617175817133
3.5,0.2031617175817133
3.506667,0.19534897915585803
3.513333,0.18753624073000275
3.52,0.1640980254524369
3.526667,0.1250343333231605
3.533333,0.08597064119388409
3.54,0.046906949064607684
3.546667,0.01565599536118656
3.553333,-0.007782219916379284
3.56,-0.023438215277565844
3.566667,-0.031250953703421125
3.573333,-0.023438215277565844
3.58,0.0
3.586667,0.03128147221289712
3.593333,0.06253242591631825
3.6,0.08597064119388409
3.606667,0.09378337961973937
3.613333,0.09378337961973937
3.62,0.09378337961973937
3.626667,0.07815790276802881
3.633333,0.0390942106387524
3.64,3.051850947599719e-05
3.646667,-0.05465865047151097
3.653333,-0.09375286111026337
3.66,-0.1250038148136845
3.666667,-0.15625476851710562
3.673333,-0.250007629627369
3.68,-0.2109439374980926
3.686667,0.13281655323953978
3.693333,0.8828699606311228
3.7,-0.6640522476882229
3.706667,-0.6640522476882229
3.713333,-0.8359324930570391
3.72,0.42973113193151646
3.726667,-0.5234229560228278
3.733333,-0.9140903958250679
3.74,-0.9140903958250679
3.746667,-0.8281502731406598
3.753333,-0.6718955046235542
3.76,-0.5078279976805933
3.766667,-0.35157322916348765
3.773333,-0.2109439374980926
3.78,-0.14062929166539506
3.786667,-0.1250038148136845
3.793333,-0.11719107638782922
3.8,-0.0859401226844081
3.806667,-0.06250190740684225
3.813333,-0.06250190740684225
3.82,-0.07031464583269753
3.826667,-0.0859401226844081
3.833333,-0.0859401226844081
3.84,-0.09375286111026337
3.846667,-0.0859401226844081
3.853333,-0.07031464583269753
3.86,-0.05468916898098697
3.866667,-0.039063692129276406
3.873333,0.0
3.88,0.0390942106387524
3.886667,0.07815790276802881
3.893333,0.1250343333231605
3.9,0.15628528702658162
3.906667,0.17972350230414746
3.913333,0.2031617175817133
3.92,0.2031617175817133
3.926667,0.18753624073000275
3.933333,0.17191076387829218
3.94,0.15628528702658162
3.946667,0.14065981017487106
3.953333,0.1250343333231605
3.96,0.10940885647144993
3.966667,0.07815790276802881
3.973333,0.06253242591631825
3.98,0.046906949064607684
3.986667,0.03128147221289712
3.993333,0.01565599536118656
4.0,3.051850947599719e-05
4.006667,-0.007782219916379284
4.013333,-0.015625476851710562
4.02,0.007812738425855281
4.026667,0.0390942106387524
4.033333,0.07815790276802881
4.04,0.1250343333231605
4.046667,0.15628528702658162
4.053333,0.17191076387829218
4.06,0.1640980254524369
4.066667,0.14065981017487106
4.073333,0.10940885647144993
4.08,0.07034516434217353
4.086667,0.03128147221289712
4.093333,-0.007782219916379284
4.1,-0.04687643055513169
4.106667,-0.07031464583269753
4.113333,-0.07812738425855281
4.12,-0.07812738425855281
4.126667,-0.07031464583269753
4.133333,-0.07031464583269753
4.14,-0.039063692129276406
4.146667,0.8203375347148045
4.153333,-0.7812433240760521
4.16,-0.7812433240760521
4.166667,-0.7968688009277627
4.173333,0.5781731620227668
4.18,-0.43748283333841975
4.186667,-0.8515884884182257
4.193333,-0.8515884884182257
4.2,-0.6640827661976989
4.206667,-0.3750114444410535
4.213333,-0.24219489120151372
4.22,-0.1718802453688162
4.226667,-0.10156559953611866
4.233333,-0.06250190740684225
4.24,-0.06250190740684225
4.246667,-0.11719107638782922
4.253333,-0.1718802453688162
4.26,-0.1718802453688162
4.266667,-0.1640675069429609
4.273333,-0.15625476851710562
4.28,-0.13281655323953978
4.286667,-0.10156559953611866
4.293333,-0.07031464583269753
4.3,-0.04687643055513169
4.306667,-0.039063692129276406
4.313333,-0.031250953703421125
4.32,-0.031250953703421125
4.326667,-0.023438215277565844
4.333333,-0.007812738425855281
4.34,0.015625476851710562
4.346667,0.0390942106387524
4.353333,0.07034516434217353
4.36,0.10159611804559465
4.366667,0.1250343333231605
4.373333,0.13284707174901578
4.38,0.13284707174901578
4.386667,0.13284707174901578
4.393333,0.1250343333231605
4.4,0.10159611804559465
4.406667,0.06253242591631825
4.413333,0.03128147221289712
4.42,0.00784325693533128
4.426667,3.051850947599719e-05
4.433333,-0.007782219916379284
4.44,-0.015625476851710562
4.446667,-0.015625476851710562
4.453333,-0.023438215277565844
4.46,-0.023438215277565844
4.466667,-0.023438215277565844
4.473333,-0.015625476851710562
4.48,0.0
4.486667,0.02346873378704184
4.493333,0.054719687490462965
4.5,0.07815790276802881
4.506667,0.10159611804559465
4.513333,0.11722159489730521
4.52,0.1250343333231605
4.526667,0.1250343333231605
4.533333,0.10159611804559465
4.54,0.07815790276802881
4.546667,0.046906949064607684
4.553333,0.02346873378704184
4.56,3.051850947599719e-05
4.566667,-0.023407696768089847
4.573333,-0.05468916898098697
4.58,-0.1640675069429609
4.586667,-0.023438215277565844
4.593333,0.5468916898098697
4.6,-0.6171758171330912
4.606667,-0.2109134189886166
4.613333,-0.2109134189886166
4.62,-0.7812433240760521
4.626667,0.08597064119388409
4.633333,-0.499984740745262
4.64,-0.5156407361064486
4.646667,-0.5156407361064486
4.653333,-0.35938596758934294
4.66,-0.14844203009125034
4.666667,-0.07812738425855281
4.673333,-0.07812738425855281
4.68,-0.14062929166539506
4.686667,-0.27344584490493484
4.693333,-0.3437604907376324
4.7,-0.3437604907376324
4.706667,-0.2890713217566454
4.713333,-0.18750572222052675
4.72,-0.14844203009125034
4.726667,-0.11719107638782922
4.733333,-0.07812738425855281
4.74,-0.039063692129276406
4.746667,-0.015625476851710562
4.753333,0.0
4.76,0.00784325693533128
4.766667,0.0390942106387524
4.773333,0.07034516434217353
4.78,0.09378337961973937
4.786667,0.10940885647144993
4.793333,0.1250343333231605
4.8,0.15628528702658162
4.806667,0.2031617175817133
4.813333,0.250038148136845
4.82,0.2812891018402661
4.826667,0.2891018402661214
4.833333,0.2969145786919767
4.84,0.2969145786919767
4.846667,0.2969145786919767
4.853333,0.27347636341441084
4.86,0.22659993285927915
4.866667,0.17972350230414746
4.873333,0.14847254860072634
4.88,0.13284707174901578
4.886667,0.11722159489730521
4.893333,0.10159611804559465
4.9,0.08597064119388409
4.906667,0.07034516434217353
4.913333,0.06253242591631825
4.92,0.06253242591631825
4.926667,0.054719687490462965
4.933333,0.046906949064607684
4.94,0.046906949064607684
4.946667,0.046906949064607684
4.953333,0.06253242591631825
4.96,0.07815790276802881
4.966667,0.08597064119388409
4.973333,0.08597064119388409
4.98,0.06253242591631825
4.986667,0.03128147221289712
4.993333,3.051850947599719e-05
5.0,-0.03903317361980041
5.006667,-0.06250190740684225
5.013333,-0.09375286111026337
5.02,-0.1250038148136845
5.026667,-0.14844203009125034
5.033333,-0.14062929166539506
5.04,-0.1250038148136845
5.046667,0.30469679860835597
5.053333,-0.8906216620380261
5.06,-0.4218573564867092
5.066667,-0.4218573564867092
5.073333,-0.8828089236121708
5.08,0.046906949064607684
5.086667,-0.5702993865779595
5.093333,-0.5703299050874355
5.1,-0.5625171666615802
5.106667,-0.4922025208288827
5.113333,-0.39063692129276406
5.12,-0.3828241828669088
5.126667,-0.3750114444410535
5.133333,-0.31250953703421125
5.14,-0.24219489120151372
5.146667,-0.19531846064638203
5.153333,-0.19531846064638203
5.16,-0.19531846064638203
5.166667,-0.17969298379467147
5.173333,-0.11719107638782922
5.18,-0.05468916898098697
5.186667,-0.05468916898098697
5.193333,-0.05468916898098697
5.2,-0.06250190740684225
5.206667,-0.06250190740684225
5.213333,-0.04687643055513169
5.22,-0.023438215277565844
5.226667,0.0
5.233333,0.02346873378704184
5.24,0.046906949064607684
5.246667,0.07034516434217353
5.253333,0.10159611804559465
5.26,0.1250343333231605
5.266667,0.14065981017487106
5.273333,0.14065981017487106
5.28,0.13284707174901578
5.286667,0.14065981017487106
5.293333,0.14847254860072634
5.3,0.15628528702658162
5.306667,0.15628528702658162
5.313333,0.13284707174901578
5.32,0.10159611804559465
5.326667,0.07815790276802881
5.333333,0.054719687490462965
5.34,0.03128147221289712
5.346667,3.051850947599719e-05
5.353333,-0.03122043519394513
5.36,-0.04687643055513169
5.366667,-0.031250953703421125
5.373333,-0.007812738425855281
5.38,0.015625476851710562
5.386667,0.02346873378704184
5.393333,0.02346873378704184
5.4,0.02346873378704184
5.406667,0.02346873378704184
5.413333,0.0390942106387524
5.42,0.046906949064607684
5.426667,0.054719687490462965
5.433333,0.06253242591631825
5.44,0.054719687490462965
5.446667,0.046906949064607684
5.453333,0.02346873378704184
5.46,-0.007782219916379284
5.466667,-0.05468916898098697
5.473333,-0.0859401226844081
5.48,-0.10156559953611866
5.486667,-0.11719107638782922
5.493333,-0.10937833796197394
5.5,-0.09375286111026337
5.506667,0.3750114444410535
5.513333,-0.8437452314828944
5.52,-0.42967009491256447
5.526667,-0.42967009491256447
5.533333,0.9766228217413861
5.54,-0.14059877315591907
5.546667,-0.6718955046235542
5.553333,-0.6718955046235542
5.56,-0.6172063356425672
5.566667,-0.5390789513840144
5.573333,-0.500015259254738
5.58,-0.42970061342204047
5.586667,-0.26563310647907956
5.593333,-0.1640675069429609
5.6,-0.1640675069429609
5.606667,-0.18750572222052675
5.613333,-0.19531846064638203
5.62,-0.19531846064638203
5.626667,-0.18750572222052675
5.633333,-0.18750572222052675
5.64,-0.17969298379467147
5.646667,-0.1640675069429609
5.653333,-0.13281655323953978
5.66,-0.09375286111026337
5.666667,-0.06250190740684225
5.673333,-0.039063692129276406
5.68,-0.031250953703421125
5.686667,-0.015625476851710562
5.693333,0.031250953703421125
5.7,0.07034516434217353
5.706667,0.10159611804559465
5.713333,0.1250343333231605
5.72,0.14065981017487106
5.726667,0.1640980254524369
5.733333,0.18753624073000275
5.74,0.2109744560075686
5.746667,0.21878719443342387
5.753333,0.2031617175817133
5.76,0.18753624073000275
5.766667,0.1640980254524369
5.773333,0.14847254860072634
5.78,0.1250343333231605
5.786667,0.09378337961973937
5.793333,0.07034516434217353
5.8,0.046906949064607684
5.806667,0.0390942106387524
5.813333,0.03128147221289712
5.82,0.02346873378704184
5.826667,0.00784325693533128
5.833333,-0.007782219916379284
5.84,-0.031250953703421125
5.846667,-0.039063692129276406
5.853333,-0.031250953703421125
5.86,0.0
5.866667,0.03128147221289712
5.873333,0.07034516434217353
5.88,0.10159611804559465
5.886667,0.13284707174901578
5.893333,0.14847254860072634
5.9,0.14065981017487106
5.906667,0.09378337961973937
5.913333,0.0390942106387524
5.92,-0.023407696768089847
5.926667,-0.07031464583269753
5.933333,-0.10937833796197394
5.94,-0.13281655323953978
5.946667,-0.14062929166539506
5.953333,-0.13281655323953978
5.96,-0.09375286111026337
5.966667,0.6093935972167119
5.973333,-0.8515579699087497
5.98,-0.7109286782433546
5.986667,-0.7109286782433546
5.993333,0.695364238410596
6.0,-0.39060640278328806
6.006667,-0.8828394421216468
6.013333,-0.8828394421216468
6.02,-0.6640827661976989
6.026667,-0.43751335184789575
6.033333,-0.3671987060151982
6.04,-0.35938596758934294
6.046667,-0.35938596758934294
6.053333,-0.2968840601825007
6.06,-0.27344584490493484
6.066667,-0.27344584490493484
6.073333,-0.26563310647907956
6.08,-0.26563310647907956
6.086667,-0.2031311990722373
6.093333,-0.10156559953611866
6.1,-0.05468916898098697
6.106667,-0.05468916898098697
6.113333,-0.04687643055513169
6.12,-0.039063692129276406
6.126667,-0.031250953703421125
6.133333,-0.023438215277565844
6.14,-0.015625476851710562
6.146667,-0.007812738425855281
6.153333,0.0
6.16,0.01565599536118656
6.166667,0.03128147221289712
6.173333,0.06253242591631825
6.18,0.09378337961973937
6.186667,0.11722159489730521
6.193333,0.14847254860072634
6.2,0.17972350230414746
6.206667,0.19534897915585803
6.213333,0.2031617175817133
6.22,0.18753624073000275
6.226667,0.14847254860072634
6.233333,0.10159611804559465
6.24,0.06253242591631825
6.246667,0.03128147221289712
6.253333,0.01565599536118656
6.26,0.00784325693533128
6.266667,3.051850947599719e-05
6.273333,0.00784325693533128
6.28,0.03128147221289712
6.286667,0.046906949064607684
6.293333,0.054719687490462965
6.3,0.054719687490462965
6.306667,0.054719687490462965
6.313333,0.054719687490462965
6.32,0.06253242591631825
6.326667,0.07815790276802881
6.333333,0.08597064119388409
6.34,0.08597064119388409
6.346667,0.08597064119388409
6.353333,0.07034516434217353
6.36,0.054719687490462965
6.366667,0.02346873378704184
6.373333,-0.007782219916379284
6.38,-0.039063692129276406
6.386667,-0.07031464583269753
6.393333,-0.09375286111026337
6.4,-0.13281655323953978
6.406667,-0.1640675069429609
6.413333,-0.17969298379467147
6.42,-0.1640675069429609
6.426667,0.6718955046235542
6.433333,-0.7812433240760521
6.44,-0.6406140324106571
6.446667,-0.6406140324106571
6.453333,0.7031769768364513
6.46,-0.4609210486159856
6.466667,-0.9765923032319102
6.473333,-0.9765923032319102
6.48,-0.7265846736045412
6.486667,-0.4140751365703299
6.493333,-0.31250953703421125
6.5,-0.30469679860835597
6.506667,-0.27344584490493484
6.513333,-0.26563310647907956
6.52,-0.250007629627369
6.526667,-0.250007629627369
6.533333,-0.250007629627369
6.54,-0.23438215277565844
6.546667,-0.14062929166539506
6.553333,-0.039063692129276406
6.56,0.0
6.566667,3.051850947599719e-05
6.573333,3.051850947599719e-05
6.58,0.00784325693533128
6.586667,0.02346873378704184
6.593333,0.03128147221289712
6.6,0.0390942106387524
6.606667,0.0390942106387524
6.613333,0.046906949064607684
6.62,0.06253242591631825
6.626667,0.08597064119388409
6.633333,0.11722159489730521
6.64,0.14065981017487106
6.646667,0.14847254860072634
6.653333,0.14847254860072634
6.66,0.15628528702658162
6.666667,0.1640980254524369
6.673333,0.1640980254524369
6.68,0.14847254860072634
6.686667,0.1250343333231605
6.693333,0.09378337961973937
6.7,0.07034516434217353
6.706667,0.054719687490462965
6.713333,0.046906949064607684
6.72,0.03128147221289712
6.726667,0.01565599536118656
6.733333,3.051850947599719e-05
6.74,-0.007782219916379284
6.746667,0.0
6.753333,0.00784325693533128
6.76,0.02346873378704184
6.766667,0.03128147221289712
6.773333,0.046906949064607684
6.78,0.07034516434217353
6.786667,0.10159611804559465
6.793333,0.13284707174901578
6.8,0.14847254860072634
6.806667,0.15628528702658162
6.813333,0.14847254860072634
6.82,0.14065981017487106
6.826667,0.10940885647144993
6.833333,0.07034516434217353
6.84,0.01565599536118656
6.846667,-0.03122043519394513
6.853333,-0.07812738425855281
6.86,-0.11719107638782922
6.866667,-0.14062929166539506
6.873333,-0.15625476851710562
6.88,0.1640675069429609
6.886667,0.945371868037965
6.893333,-0.5937376018555254
6.9,-0.5937376018555254
6.906667,-0.7578051087984863
6.913333,0.500045777764214
6.92,-0.4921720023194067
6.926667,-0.9140903958250679
6.933333,-0.9140903958250679
6.94,-0.7812738425855281
6.946667,-0.5234534745323038
6.953333,-0.2968840601825007
6.96,-0.19531846064638203
6.966667,-0.19531846064638203
6.973333,-0.250007629627369
6.98,-0.30469679860835597
6.986667,-0.30469679860835597
6.993333,-0.24219489120151372
7.0,-0.14062929166539506
7.006667,-0.06250190740684225
7.013333,0.007812738425855281
7.02,0.03128147221289712
7.026667,0.0390942106387524
7.033333,0.0390942106387524
7.04,0.03128147221289712
7.046667,0.02346873378704184
7.053333,0.02346873378704184
7.06,0.02346873378704184
7.066667,0.046906949064607684
7.073333,0.07815790276802881
7.08,0.11722159489730521
7.086667,0.15628528702658162
7.093333,0.2031617175817133
7.1,0.24222540971098971
7.106667,0.26566362498855556
7.113333,0.27347636341441084
7.12,0.27347636341441084
7.126667,0.250038148136845
7.133333,0.22659993285927915
7.14,0.19534897915585803
7.146667,0.1640980254524369
7.153333,0.14065981017487106
7.16,0.13284707174901578
7.166667,0.13284707174901578
7.173333,0.11722159489730521
7.18,0.09378337961973937
7.186667,0.06253242591631825
7.193333,0.0390942106387524
7.2,0.02346873378704184
7.206667,0.00784325693533128
7.213333,-0.007782219916379284
7.22,-0.023438215277565844
7.226667,-0.023438215277565844
7.233333,0.007812738425855281
7.24,0.046906949064607684
7.246667,0.08597064119388409
7.253333,0.11722159489730521
7.26,0.13284707174901578
7.266667,0.11722159489730521
7.273333,0.09378337961973937
7.28,0.06253242591631825
7.286667,0.02346873378704184
7.293333,-0.03122043519394513
7.3,-0.0859401226844081
7.306667,-0.13281655323953978
7.313333,-0.1718802453688162
7.32,-0.17969298379467147
7.326667,-0.1640675069429609
7.333333,-0.11719107638782922
7.34,0.7812738425855281
7.346667,-0.8281197546311838
7.353333,-0.8124942777794733
7.36,-0.8124942777794733
7.366667,0.5937986388744774
7.373333,-0.42967009491256447
7.38,-0.8672139652699362
7.386667,-0.8672139652699362
7.393333,-0.6640827661976989
7.4,-0.35938596758934294
7.406667,-0.2109439374980926
7.413333,-0.1640675069429609
7.42,-0.1640675069429609
7.426667,-0.17969298379467147
7.433333,-0.19531846064638203
7.44,-0.19531846064638203
7.446667,-0.1640675069429609
7.453333,-0.07031464583269753
7.46,-0.007812738425855281
7.466667,0.015625476851710562
7.473333,0.01565599536118656
7.48,0.01565599536118656
7.486667,0.01565599536118656
7.493333,0.03128147221289712
7.5,0.046906949064607684
7.506667,0.06253242591631825
7.513333,0.07815790276802881
7.52,0.08597064119388409
7.526667,0.10159611804559465
7.533333,0.1250343333231605
7.54,0.14065981017487106
7.546667,0.15628528702658162
7.553333,0.17972350230414746
7.56,0.18753624073000275
7.566667,0.2031617175817133
7.573333,0.2031617175817133
7.58,0.2109744560075686
7.586667,0.21878719443342387
7.593333,0.21878719443342387
7.6,0.21878719443342387
7.606667,0.2031617175817133
7.613333,0.17972350230414746
7.62,0.15628528702658162
7.626667,0.1250343333231605
7.633333,0.08597064119388409
7.64,0.046906949064607684
7.646667,0.01565599536118656
7.653333,3.051850947599719e-05
7.66,-0.007782219916379284
7.666667,-0.007812738425855281
7.673333,-0.007812738425855281
7.68,0.015625476851710562
7.686667,0.0390942106387524
7.693333,0.07815790276802881
7.7,0.10159611804559465
7.706667,0.10940885647144993
7.713333,0.10159611804559465
7.72,0.08597064119388409
7.726667,0.07034516434217353
7.733333,0.054719687490462965
7.74,0.03128147221289712
7.746667,0.00784325693533128
7.753333,-0.015594958342234566
7.76,-0.031250953703421125
7.766667,-0.031250953703421125
7.773333,-0.031250953703421125
7.78,-0.023438215277565844
7.786667,0.0
7.793333,0.8281807916501358
7.8,-0.6796777245399335
7.806667,-0.6796777245399335
7.813333,-0.7187414166692099
7.82,0.6328623310037538
7.826667,-0.2577898495437483
7.833333,-0.554704428235725
7.84,-0.554704428235725
7.846667,-0.3828241828669088
7.853333,-0.2109439374980926
7.86,-0.2109439374980926
7.866667,-0.2031311990722373
7.873333,-0.2031311990722373
7.88,-0.14844203009125034
7.886667,-0.06250190740684225
7.893333,-0.031250953703421125
7.9,-0.015625476851710562
7.906667,0.007812738425855281
7.913333,0.02346873378704184
7.92,0.02346873378704184
7.926667,0.02346873378704184
7.933333,0.03128147221289712
7.94,0.046906949064607684
7.946667,0.06253242591631825
7.953333,0.07034516434217353
7.96,0.07034516434217353
7.966667,0.07034516434217353
7.973333,0.07815790276802881
7.98,0.08597064119388409
7.986667,0.09378337961973937
7.993333,0.10159611804559465
8.0,0.10159611804559465
8.006667,0.10159611804559465
8.013333,0.10940885647144993
8.02,0.10159611804559465
8.026667,0.08597064119388409
8.033333,0.054719687490462965
8.04,0.02346873378704184
8.046667,-0.007782219916379284
8.053333,-0.023438215277565844
8.06,-0.039063692129276406
8.066667,-0.05468916898098697
8.073333,-0.06250190740684225
8.08,-0.06250190740684225
8.086667,-0.04687643055513169
8.093333,-0.031250953703421125
8.1,-0.023438215277565844
8.106667,-0.039063692129276406
8.113333,-0.07031464583269753
8.12,-0.10156559953611866
8.126667,-0.1250038148136845
8.133333,-0.14844203009125034
8.14,-0.14062929166539506
8.146667,-0.11719107638782922
8.153333,-0.09375286111026337
8.16,-0.05468916898098697
8.166667,-0.023438215277565844
8.173333,-0.015625476851710562
8.18,-0.023438215277565844
8.186667,-0.04687643055513169
8.193333,-0.0859401226844081
8.2,-0.13281655323953978
8.206667,-0.1718802453688162
8.213333,-0.2109439374980926
8.22,-0.23438215277565844
8.226667,-0.22656941434980316
8.233333,-0.19531846064638203
8.24,0.35157322916348765
8.246667,0.9375591296121097
8.253333,-0.7421796319467757
8.26,-0.7421796319467757
8.266667,0.8438062685018464
8.273333,-0.06247138889736625
8.28,-0.5625171666615802
8.286667,-0.5781426435132908
8.293333,-0.5781426435132908
8.3,-0.5234534745323038
8.306667,-0.44532609027375103
8.313333,-0.44532609027375103
8.32,-0.44532609027375103
8.326667,-0.4218878749961852
8.333333,-0.3359477523117771
8.34,-0.23438215277565844
8.346667,-0.22656941434980316
8.353333,-0.21875667592394787
8.36,-0.19531846064638203
8.366667,-0.10937833796197394
8.373333,-0.007812738425855281
8.38,0.007812738425855281
8.386667,0.01565599536118656
8.393333,0.01565599536118656
8.4,0.02346873378704184
8.406667,0.03128147221289712
8.413333,0.046906949064607684
8.42,0.054719687490462965
8.426667,0.07034516434217353
8.433333,0.08597064119388409
8.44,0.10159611804559465
8.446667,0.10940885647144993
8.453333,0.1250343333231605
8.46,0.13284707174901578
8.466667,0.14065981017487106
8.473333,0.14065981017487106
8.48,0.13284707174901578
8.486667,0.1250343333231605
8.493333,0.11722159489730521
8.5,0.10159611804559465
8.506667,0.09378337961973937
8.513333,0.08597064119388409
8.52,0.07034516434217353
8.526667,0.054719687490462965
8.533333,0.02346873378704184
8.54,-0.015594958342234566
8.546667,-0.05468916898098697
8.553333,-0.07812738425855281
8.56,-0.10156559953611866
8.566667,-0.10937833796197394
8.573333,-0.10937833796197394
8.58,-0.0859401226844081
8.586667,-0.031250953703421125
8.593333,0.031250953703421125
8.6,0.09378337961973937
8.606667,0.1250343333231605
8.613333,0.13284707174901578
8.62,0.11722159489730521
8.626667,0.08597064119388409
8.633333,0.0390942106387524
8.64,-0.007782219916379284
8.646667,-0.05468916898098697
8.653333,-0.0859401226844081
8.66,-0.10937833796197394
8.666667,-0.1250038148136845
8.673333,-0.1250038148136845
8.68,-0.10937833796197394
8.686667,0.26563310647907956
8.693333,-0.9843745231482894
8.7,-0.5390484328745384
8.706667,-0.5390484328745384
8.713333,-0.7968688009277627
8.72,0.3359782708212531
8.726667,-0.4062318796349986
8.733333,-0.5468916898098697
8.74,-0.5468916898098697
8.746667,-0.47657704397717215
8.753333,-0.3671987060151982
8.76,-0.35938596758934294
8.766667,-0.3359477523117771
8.773333,-0.24219489120151372
8.78,-0.1718802453688162
8.786667,-0.1718802453688162
8.793333,-0.18750572222052675
8.8,-0.2031311990722373
8.806667,-0.21875667592394787
8.813333,-0.21875667592394787
8.82,-0.10156559953611866
8.826667,-0.015625476851710562
8.833333,0.039063692129276406
8.84,0.07034516434217353
8.846667,0.07815790276802881
8.853333,0.07034516434217353
8.86,0.054719687490462965
8.866667,0.046906949064607684
8.873333,0.06253242591631825
8.88,0.054719687490462965
8.886667,0.0390942106387524
8.893333,0.03128147221289712
8.9,0.046906949064607684
8.906667,0.07815790276802881
8.913333,0.10159611804559465
8.92,0.13284707174901578
8.926667,0.14065981017487106
8.933333,0.14847254860072634
8.94,0.14847254860072634
8.946667,0.1250343333231605
8.953333,0.10159611804559465
8.96,0.07034516434217353
8.966667,0.046906949064607684
8.973333,0.02346873378704184
8.98,0.01565599536118656
8.986667,3.051850947599719e-05
8.993333,-0.007782219916379284
9.0,-0.007812738425855281
9.006667,-0.015625476851710562
9.013333,-0.015625476851710562
9.02,-0.015625476851710562
9.026667,-0.007812738425855281
9.033333,-0.007812738425855281
9.04,0.0
9.046667,0.02346873378704184
9.053333,0.046906949064607684
9.06,0.07034516434217353
9.066667,0.08597064119388409
9.073333,0.08597064119388409
9.08,0.07815790276802881
9.086667,0.06253242591631825
9.093333,0.0390942106387524
9.1,0.01565599536118656
9.106667,-0.007782219916379284
9.113333,-0.039063692129276406
9.12,-0.07031464583269753
9.126667,-0.10156559953611866
9.133333,-0.1250038148136845
9.14,-0.11719107638782922
9.146667,0.6797082430494095
9.153333,-0.7734305856501968
9.16,-0.6874904629657888
9.166667,-0.6874904629657888
9.173333,0.7109897152623066
9.18,-0.35154271065401166
9.186667,-0.8203375347148045
9.193333,-0.8203375347148045
9.2,-0.6406445509201331
9.206667,-0.43751335184789575
9.213333,-0.3750114444410535
9.22,-0.3671987060151982
9.226667,-0.3359477523117771
9.233333,-0.2109439374980926
9.24,-0.0859401226844081
9.246667,-0.0859401226844081
9.253333,-0.09375286111026337
9.26,-0.1640675069429609
9.266667,-0.23438215277565844
9.273333,-0.23438215277565844
9.28,-0.10937833796197394
9.286667,-0.039063692129276406
9.293333,-0.007812738425855281
9.3,0.023438215277565844
9.306667,0.046906949064607684
9.313333,0.07034516434217353
9.32,0.08597064119388409
9.326667,0.09378337961973937
9.333333,0.10940885647144993
9.34,0.10940885647144993
9.346667,0.10940885647144993
9.353333,0.1250343333231605
9.36,0.14065981017487106
9.366667,0.15628528702658162
9.373333,0.1640980254524369
9.38,0.19534897915585803
9.386667,0.22659993285927915
9.393333,0.24222540971098971
9.4,0.23441267128513443
9.406667,0.2031617175817133
9.413333,0.1640980254524369
9.42,0.1250343333231605
9.426667,0.08597064119388409
9.433333,0.046906949064607684
9.44,0.01565599536118656
9.446667,-0.007782219916379284
9.453333,0.0
9.46,0.01565599536118656
9.466667,0.03128147221289712
9.473333,0.03128147221289712
9.48,0.01565599536118656
9.486667,3.051850947599719e-05
9.493333,-0.007782219916379284
9.5,0.0
9.506667,0.03128147221289712
9.513333,0.054719687490462965
9.52,0.07034516434217353
9.526667,0.07815790276802881
9.533333,0.08597064119388409
9.54,0.09378337961973937
9.546667,0.09378337961973937
9.553333,0.054719687490462965
9.56,-0.007782219916379284
9.566667,-0.05468916898098697
9.573333,-0.10156559953611866
9.58,-0.11719107638782922
9.586667,-0.13281655323953978
9.593333,-0.13281655323953978
9.6,-0.11719107638782922
9.606667,0.48438978240302744
9.613333,-0.9296853541673025
9.62,-0.7421796319467757
9.626667,-0.7421796319467757
9.633333,0.6172368541520432
9.64,-0.3671681875057222
9.646667,-0.7265846736045412
9.653333,-0.7265846736045412
9.66,-0.554704428235725
9.666667,-0.3671987060151982
9.673333,-0.3671987060151982
9.68,-0.3671987060151982
9.686667,-0.35938596758934294
9.693333,-0.26563310647907956
9.7,-0.14062929166539506
9.706667,-0.10156559953611866
9.713333,-0.10156559953611866
9.72,-0.14844203009125034
9.726667,-0.2031311990722373
9.733333,-0.2031311990722373
9.74,-0.11719107638782922
9.746667,-0.04687643055513169
9.753333,0.007812738425855281
9.76,0.0390942106387524
9.766667,0.06253242591631825
9.773333,0.07815790276802881
9.78,0.09378337961973937
9.786667,0.10159611804559465
9.793333,0.14065981017487106
9.8,0.1640980254524369
9.806667,0.17191076387829218
9.813333,0.18753624073000275
9.82,0.18753624073000275
9.826667,0.19534897915585803
9.833333,0.2031617175817133
9.84,0.21878719443342387
9.846667,0.22659993285927915
9.853333,0.23441267128513443
9.86,0.21878719443342387
9.866667,0.2031617175817133
9.873333,0.18753624073000275
9.88,0.17191076387829218
9.886667,0.14847254860072634
9.893333,0.11722159489730521
9.9,0.07815790276802881
9.906667,0.06253242591631825
9.913333,0.06253242591631825
9.92,0.06253242591631825
9.926667,0.054719687490462965
9.933333,0.046906949064607684
9.94,0.03128147221289712
9.946667,0.0390942106387524
9.953333,0.054719687490462965
9.96,0.06253242591631825
9.966667,0.06253242591631825
9.973333,0.06253242591631825
9.98,0.07815790276802881
9.986667,0.09378337961973937
9.993333,0.10940885647144993
10.0,0.10159611804559465
10.006667,0.07815790276802881
10.013333,0.0390942106387524
10.02,0.00784325693533128
10.026667,-0.03122043519394513
10.033333,-0.06250190740684225
10.04,-0.10156559953611866
10.046667,-0.13281655323953978
10.053333,-0.15625476851710562
10.06,-0.1640675069429609
10.066667,0.14844203009125034
10.073333,0.9141209143345439
10.08,-0.6328012939848018
10.086667,-0.6328012939848018
10.093333,-0.8984344004638813
10.1,0.2031617175817133
10.106667,-0.6640522476882229
10.113333,-0.8906521805475021
10.12,-0.8906521805475021
10.126667,-0.6562700277718436
10.133333,-0.3359477523117771
10.14,-0.250007629627369
10.146667,-0.250007629627369
10.153333,-0.2578203680532243
10.16,-0.2578203680532243
10.166667,-0.21875667592394787
10.173333,-0.1640675069429609
10.18,-0.1250038148136845
10.186667,-0.1250038148136845
10.193333,-0.1250038148136845
10.2,-0.09375286111026337
10.206667,-0.07031464583269753
10.213333,-0.05468916898098697
10.22,-0.039063692129276406
10.226667,-0.031250953703421125
10.233333,-0.023438215277565844
10.24,-0.007812738425855281
10.246667,0.007812738425855281
10.253333,0.046906949064607684
10.26,0.07815790276802881
10.266667,0.10159611804559465
10.273333,0.11722159489730521
10.28,0.14065981017487106
10.286667,0.15628528702658162
10.293333,0.17972350230414746
10.3,0.18753624073000275
10.306667,0.19534897915585803
10.313333,0.2031617175817133
10.32,0.2031617175817133
10.326667,0.19534897915585803
10.333333,0.17191076387829218
10.34,0.14847254860072634
10.346667,0.10940885647144993
10.353333,0.07815790276802881
10.36,0.054719687490462965
10.366667,0.0390942106387524
10.373333,0.0390942106387524
10.38,0.046906949064607684
10.386667,0.06253242591631825
10.393333,0.08597064119388409
10.4,0.10940885647144993
10.406667,0.13284707174901578
10.413333,0.14065981017487106
10.42,0.14065981017487106
10.426667,0.14065981017487106
10.433333,0.14065981017487106
10.44,0.14065981017487106
10.446667,0.13284707174901578
10.453333,0.1250343333231605
10.46,0.11722159489730521
10.466667,0.10159611804559465
10.473333,0.09378337961973937
10.48,0.07034516434217353
10.486667,0.0390942106387524
10.493333,0.00784325693533128
10.5,-0.023407696768089847
10.506667,-0.04687643055513169
10.513333,-0.07812738425855281
10.52,-0.18750572222052675
10.526667,0.05468916898098697
10.533333,0.6719260231330302
10.54,-0.7265541550950652
10.546667,-0.5077974791711173
10.553333,-0.5077974791711173
10.56,0.9141209143345439
10.566667,-0.20310068056276132
10.573333,-0.750022888882107
10.58,-0.750022888882107
10.586667,-0.6015808587908567
10.593333,-0.4062623981444746
10.6,-0.3359477523117771
10.606667,-0.3359477523117771
10.613333,-0.3359477523117771
10.62,-0.3359477523117771
10.626667,-0.2578203680532243
10.633333,-0.17969298379467147
10.64,-0.1640675069429609
10.646667,-0.1640675069429609
10.653333,-0.1640675069429609
10.66,-0.14844203009125034
10.666667,-0.1250038148136845
10.673333,-0.10937833796197394
10.68,-0.09375286111026337
10.686667,-0.07812738425855281
10.693333,-0.04687643055513169
10.7,-0.023438215277565844
10.706667,0.015625476851710562
10.713333,0.0390942106387524
10.72,0.054719687490462965
10.726667,0.06253242591631825
10.733333,0.07815790276802881
10.74,0.09378337961973937
10.746667,0.10940885647144993
10.753333,0.11722159489730521
10.76,0.1250343333231605
10.766667,0.14065981017487106
10.773333,0.1640980254524369
10.78,0.18753624073000275
10.786667,0.2031617175817133
10.793333,0.19534897915585803
10.8,0.17191076387829218
10.806667,0.14847254860072634
10.813333,0.11722159489730521
10.82,0.08597064119388409
10.826667,0.06253242591631825
10.833333,0.0390942106387524
10.84,0.03128147221289712
10.846667,0.02346873378704184
10.853333,0.01565599536118656
10.86,0.02346873378704184
10.866667,0.02346873378704184
10.873333,0.03128147221289712
10.88,0.046906949064607684
10.886667,0.07034516434217353
10.893333,0.10159611804559465
10.9,0.13284707174901578
10.906667,0.14847254860072634
10.913333,0.14065981017487106
10.92,0.11722159489730521
10.926667,0.09378337961973937
10.933333,0.07034516434217353
10.94,0.02346873378704184
10.946667,-0.023407696768089847
10.953333,-0.0859401226844081
10.96,-0.14062929166539506
10.966667,-0.17969298379467147
10.973333,-0.3437604907376324
10.98,-0.2578203680532243
10.986667,0.023438215277565844
10.993333,0.5625476851710562
11.0,-0.7968688009277627
11.006667,-0.4921720023194067
11.013333,-0.4921720023194067
11.02,0.9766228217413861
11.026667,-0.10153508102664266
11.033333,-0.6484572893459883
11.04,-0.6562700277718436
11.046667,-0.6562700277718436
11.053333,-0.47657704397717215
11.06,-0.2968840601825007
11.066667,-0.2812585833307901
11.073333,-0.2812585833307901
11.08,-0.2968840601825007
11.086667,-0.32032227546006653
11.093333,-0.32032227546006653
11.1,-0.2890713217566454
11.106667,-0.22656941434980316
11.113333,-0.18750572222052675
11.12,-0.14062929166539506
11.126667,-0.0859401226844081
11.133333,-0.04687643055513169
11.14,-0.015625476851710562
11.146667,0.007812738425855281
11.153333,0.02346873378704184
11.16,0.054719687490462965
11.166667,0.07034516434217353
11.173333,0.07815790276802881
11.18,0.07815790276802881
11.186667,0.10159611804559465
11.193333,0.1250343333231605
11.2,0.14847254860072634
11.206667,0.17191076387829218
11.213333,0.2031617175817133
11.22,0.23441267128513443
11.226667,0.27347636341441084
11.233333,0.2891018402661214
11.24,0.26566362498855556
11.246667,0.22659993285927915
11.253333,0.18753624073000275
11.26,0.15628528702658162
11.266667,0.14065981017487106
11.273333,0.1250343333231605
11.28,0.10940885647144993
11.286667,0.09378337961973937
11.293333,0.07815790276802881
11.3,0.054719687490462965
11.306667,0.03128147221289712
11.313333,0.00784325693533128
11.32,-0.023407696768089847
11.326667,-0.04687643055513169
11.333333,-0.06250190740684225
11.34,-0.05468916898098697
11.346667,-0.023438215277565844
11.353333,0.023438215277565844
11.36,0.07815790276802881
11.366667,0.13284707174901578
11.373333,0.1640980254524369
11.38,0.1640980254524369
11.386667,0.14847254860072634
11.393333,0.1250343333231605
11.4,0.07815790276802881
11.406667,0.03128147221289712
11.413333,-0.015594958342234566
11.42,-0.06250190740684225
11.426667,-0.09375286111026337
11.433333,-0.24219489120151372
11.44,-0.24219489120151372
11.446667,-0.015625476851710562
11.453333,0.5937681203650014
11.46,-0.7031159398174993
11.466667,-0.3827936643574328
11.473333,-0.3827936643574328
11.48,-0.9296853541673025
11.486667,-0.015594958342234566
11.493333,-0.5937681203650014
11.5,-0.6406445509201331
11.506667,-0.6406445509201331
11.513333,-0.4922025208288827
11.52,-0.30469679860835597
11.526667,-0.2578203680532243
11.533333,-0.24219489120151372
11.54,-0.2109439374980926
11.546667,-0.14844203009125034
11.553333,-0.10937833796197394
11.56,-0.10937833796197394
11.566667,-0.13281655323953978
11.573333,-0.14844203009125034
11.58,-0.15625476851710562
11.586667,-0.15625476851710562
11.593333,-0.14062929166539506
11.6,-0.10937833796197394
11.606667,-0.07031464583269753
11.613333,-0.031250953703421125
11.62,0.015625476851710562
11.626667,0.06253242591631825
11.633333,0.10159611804559465
11.64,0.14065981017487106
11.646667,0.1640980254524369
11.653333,0.17191076387829218
11.66,0.18753624073000275
11.666667,0.2031617175817133
11.673333,0.2109744560075686
11.68,0.22659993285927915
11.686667,0.24222540971098971
11.693333,0.2578508865627003
11.7,0.2812891018402661
11.706667,0.2891018402661214
11.713333,0.27347636341441084
11.72,0.23441267128513443
11.726667,0.19534897915585803
11.733333,0.15628528702658162
11.74,0.11722159489730521
11.746667,0.09378337961973937
11.753333,0.06253242591631825
11.76,0.03128147221289712
11.766667,0.01565599536118656
11.773333,0.01565599536118656
11.78,0.01565599536118656
11.786667,0.02346873378704184
11.793333,0.03128147221289712
11.8,0.03128147221289712
11.806667,0.054719687490462965
11.813333,0.08597064119388409
11.82,0.10940885647144993
11.826667,0.13284707174901578
11.833333,0.1250343333231605
11.84,0.10940885647144993
11.846667,0.09378337961973937
11.853333,0.07815790276802881
11.86,0.046906949064607684
11.866667,0.01565599536118656
11.873333,-0.023407696768089847
11.88,-0.05468916898098697
11.886667,-0.07812738425855281
11.893333,-0.0859401226844081
11.9,-0.10156559953611866
11.906667,-0.07812738425855281
11.913333,0.8750267036957915
11.92,-0.6874904629657888
11.926667,-0.6874904629657888
11.933333,-0.7890560625019074
11.94,0.5234839930417798
11.946667,-0.4140446180608539
11.953333,-0.7656483657338176
11.96,-0.7656483657338176
11.966667,-0.5937681203650014
11.973333,-0.39063692129276406
11.98,-0.3437604907376324
11.986667,-0.32032227546006653
11.993333,-0.2578203680532243
12.0,-0.14844203009125034
12.006667,-0.07812738425855281
12.013333,-0.06250190740684225
12.02,-0.06250190740684225
12.026667,-0.07812738425855281
12.033333,-0.10156559953611866
12.04,-0.10156559953611866
12.046667,-0.06250190740684225
12.053333,-0.023438215277565844
12.06,0.007812738425855281
12.066667,0.046906949064607684
12.073333,0.07815790276802881
12.08,0.10940885647144993
12.086667,0.1250343333231605
12.093333,0.13284707174901578
12.1,0.15628528702658162
12.106667,0.17191076387829218
12.113333,0.17972350230414746
12.12,0.17972350230414746
12.126667,0.18753624073000275
12.133333,0.18753624073000275
12.14,0.18753624073000275
12.146667,0.18753624073000275
12.153333,0.19534897915585803
12.16,0.2031617175817133
12.166667,0.2109744560075686
12.173333,0.19534897915585803
12.18,0.1640980254524369
12.186667,0.10940885647144993
12.193333,0.07034516434217353
12.2,0.02346873378704184
12.206667,-0.023407696768089847
12.213333,-0.05468916898098697
12.22,-0.07812738425855281
12.226667,-0.0859401226844081
12.233333,-0.06250190740684225
12.24,-0.039063692129276406
12.246667,-0.023438215277565844
12.253333,0.0
12.26,0.03128147221289712
12.266667,0.06253242591631825
12.273333,0.08597064119388409
12.28,0.07815790276802881
12.286667,0.06253242591631825
12.293333,0.0390942106387524
12.3,0.02346873378704184
12.306667,0.00784325693533128
12.313333,-0.015594958342234566
12.32,-0.04687643055513169
12.326667,-0.09375286111026337
12.333333,-0.13281655323953978
12.34,-0.15625476851710562
12.346667,-0.1718802453688162
12.353333,-0.1640675069429609
12.36,0.44532609027375103
12.366667,-0.9062471388897366
12.373333,-0.5624866481521043
12.38,-0.5624866481521043
12.386667,-0.9843745231482894
12.393333,0.10159611804559465
12.4,-0.5234229560228278
12.406667,-0.6562700277718436
12.413333,-0.6562700277718436
12.42,-0.500015259254738
12.426667,-0.250007629627369
12.433333,-0.14062929166539506
12.44,-0.11719107638782922
12.446667,-0.10937833796197394
12.453333,-0.10156559953611866
12.46,-0.09375286111026337
12.466667,-0.07812738425855281
12.473333,-0.07812738425855281
12.48,-0.07812738425855281
12.486667,-0.039063692129276406
12.493333,0.007812738425855281
12.5,0.02346873378704184
12.506667,0.02346873378704184
12.513333,0.02346873378704184
12.52,0.02346873378704184
12.526667,0.03128147221289712
12.533333,0.03128147221289712
12.54,0.0390942106387524
12.546667,0.046906949064607684
12.553333,0.06253242591631825
12.56,0.08597064119388409
12.566667,0.13284707174901578
12.573333,0.17191076387829218
12.58,0.2031617175817133
12.586667,0.22659993285927915
12.593333,0.24222540971098971
12.6,0.250038148136845
12.606667,0.250038148136845
12.613333,0.23441267128513443
12.62,0.2031617175817133
12.626667,0.17191076387829218
12.633333,0.13284707174901578
12.64,0.10159611804559465
12.646667,0.07815790276802881
12.653333,0.054719687490462965
12.66,0.046906949064607684
12.666667,0.03128147221289712
12.673333,0.01565599536118656
12.68,0.00784325693533128
12.686667,0.00784325693533128
12.693333,0.00784325693533128
12.7,0.01565599536118656
12.706667,0.03128147221289712
12.713333,0.046906949064607684
12.72,0.054719687490462965
12.726667,0.06253242591631825
12.733333,0.07034516434217353
12.74,0.07815790276802881
12.746667,0.07034516434217353
12.753333,0.06253242591631825
12.76,0.054719687490462965
12.766667,0.03128147221289712
12.773333,3.051850947599719e-05
12.78,-0.03122043519394513
12.786667,-0.05468916898098697
12.793333,-0.07812738425855281
12.8,-0.10156559953611866
12.806667,-0.10156559953611866
12.813333,0.5625171666615802
12.82,-0.8437452314828944
12.826667,-0.6484267708365123
12.833333,-0.6484267708365123
12.84,0.7422406689657277
12.846667,-0.26560258796960357
12.853333,-0.6718955046235542
12.86,-0.6718955046235542
12.866667,-0.48438978240302744
12.873333,-0.30469679860835597
12.88,-0.2890713217566454
12.886667,-0.2812585833307901
12.893333,-0.27344584490493484
12.9,-0.15625476851710562
12.906667,-0.039063692129276406
12.913333,-0.039063692129276406
12.92,-0.07812738425855281
12.926667,-0.11719107638782922
12.933333,-0.11719107638782922
12.94,-0.06250190740684225
12.946667,-0.007812738425855281
12.953333,-0.007812738425855281
12.96,-0.015625476851710562
12.966667,-0.015625476851710562
12.973333,-0.015625476851710562
12.98,-0.007812738425855281
12.986667,0.007812738425855281
12.993333,0.02346873378704184
13.0,0.046906949064607684
13.006667,0.07815790276802881
13.013333,0.10940885647144993
13.02,0.14065981017487106
13.026667,0.17191076387829218
13.033333,0.18753624073000275
13.04,0.19534897915585803
13.046667,0.19534897915585803
13.053333,0.17972350230414746
13.06,0.15628528702658162
13.066667,0.13284707174901578
13.073333,0.10940885647144993
13.08,0.09378337961973937
13.086667,0.07815790276802881
13.093333,0.054719687490462965
13.1,0.03128147221289712
13.106667,0.01565599536118656
13.113333,3.051850947599719e-05
13.12,-0.007782219916379284
13.126667,-0.023438215277565844
13.133333,-0.039063692129276406
13.14,-0.039063692129276406
13.146667,-0.015625476851710562
13.153333,0.015625476851710562
13.16,0.03128147221289712
13.166667,0.054719687490462965
13.173333,0.07815790276802881
13.18,0.10940885647144993
13.186667,0.13284707174901578
13.193333,0.1250343333231605
13.2,0.09378337961973937
13.206667,0.054719687490462965
13.213333,0.02346873378704184
13.22,-0.007782219916379284
13.226667,-0.04687643055513169
13.233333,-0.07812738425855281
13.24,-0.11719107638782922
13.246667,-0.14844203009125034
13.253333,-0.14844203009125034
13.26,0.21875667592394787
13.266667,0.945371868037965
13.273333,-0.6093630787072359
13.28,-0.6093630787072359
13.286667,-0.7421796319467757
13.293333,0.500045777764214
13.3,-0.43748283333841975
13.306667,-0.7656483657338176
13.313333,-0.7656483657338176
13.32,-0.5859553819391461
13.326667,-0.3281350138859218
13.333333,-0.24219489120151372
13.34,-0.22656941434980316
13.346667,-0.1718802453688162
13.353333,-0.0859401226844081
13.36,-0.039063692129276406
13.366667,-0.039063692129276406
13.373333,-0.04687643055513169
13.38,-0.07812738425855281
13.386667,-0.10156559953611866
13.393333,-0.10156559953611866
13.4,-0.09375286111026337
13.406667,-0.07031464583269753
13.413333,-0.04687643055513169
13.42,-0.023438215277565844
13.426667,0.0
13.433333,0.01565599536118656
13.44,0.02346873378704184
13.446667,0.054719687490462965
13.453333,0.08597064119388409
13.46,0.11722159489730521
13.466667,0.13284707174901578
13.473333,0.14847254860072634
13.48,0.1640980254524369
13.486667,0.17972350230414746
13.493333,0.18753624073000275
13.5,0.18753624073000275
13.506667,0.17191076387829218
13.513333,0.1640980254524369
13.52,0.14847254860072634
13.526667,0.13284707174901578
13.533333,0.11722159489730521
13.54,0.10159611804559465
13.546667,0.07815790276802881
13.553333,0.06253242591631825
13.56,0.02346873378704184
13.566667,-0.015594958342234566
13.573333,-0.05468916898098697
13.58,-0.07812738425855281
13.586667,-0.07031464583269753
13.593333,-0.05468916898098697
13.6,-0.039063692129276406
13.606667,-0.007812738425855281
13.613333,0.039063692129276406
13.62,0.07815790276802881
13.626667,0.10940885647144993
13.633333,0.10159611804559465
13.64,0.06253242591631825
13.646667,0.00784325693533128
13.653333,-0.03122043519394513
13.66,-0.07031464583269753
13.666667,-0.09375286111026337
13.673333,-0.11719107638782922
13.68,-0.1250038148136845
13.686667,-0.1250038148136845
13.693333,-0.11719107638782922
13.7,-0.19531846064638203
13.706667,-0.15625476851710562
13.713333,0.3359477523117771
13.72,-0.6796777245399335
13.726667,-0.14841151158177435
13.733333,-0.14841151158177435
13.74,-0.6562395092623676
13.746667,0.2969145786919767
13.753333,-0.2577898495437483
13.76,-0.27344584490493484
13.766667,-0.27344584490493484
13.773333,-0.14844203009125034
13.78,-0.031250953703421125
13.786667,-0.023438215277565844
13.793333,-0.015625476851710562
13.8,0.007812738425855281
13.806667,0.02346873378704184
13.813333,0.02346873378704184
13.82,3.051850947599719e-05
13.826667,-0.04684591204565569
13.833333,-0.0859401226844081
13.84,-0.10156559953611866
13.846667,-0.10156559953611866
13.853333,-0.09375286111026337
13.86,-0.06250190740684225
13.866667,-0.031250953703421125
13.873333,-0.007812738425855281
13.88,0.0
13.886667,0.01565599536118656
13.893333,0.0390942106387524
13.9,0.06253242591631825
13.906667,0.07815790276802881
13.913333,0.08597064119388409
13.92,0.07815790276802881
13.926667,0.07034516434217353
13.933333,0.07034516434217353
13.94,0.07034516434217353
13.946667,0.07034516434217353
13.953333,0.07034516434217353
13.96,0.07034516434217353
13.966667,0.07034516434217353
13.973333,0.06253242591631825
13.98,0.06253242591631825
13.986667,0.054719687490462965
13.993333,0.046906949064607684
14.0,0.03128147221289712
14.006667,0.02346873378704184
14.013333,0.00784325693533128
14.02,-0.007782219916379284
14.026667,-0.023438215277565844
14.033333,-0.04687643055513169
14.04,-0.07812738425855281
14.046667,-0.10156559953611866
14.053333,-0.10937833796197394
14.06,-0.09375286111026337
14.066667,-0.06250190740684225
14.073333,-0.031250953703421125
14.08,-0.007812738425855281
14.086667,0.023438215277565844
14.093333,0.046906949064607684
14.1,0.06253242591631825
14.106667,0.046906949064607684
14.113333,3.051850947599719e-05
14.12,-0.05465865047151097
14.126667,-0.10156559953611866
14.133333,-0.14062929166539506
14.14,-0.1640675069429609
14.146667,-0.17969298379467147
14.153333,-0.18750572222052675
14.16,-0.14844203009125034
14.166667,0.8125247962889492
14.173333,-0.695303201391644
14.18,-0.6015503402813807
14.186667,-0.6015503402813807
14.193333,0.8594317453535569
14.2,-0.13278603473006378
14.206667,-0.6015808587908567
14.213333,-0.6015808587908567
14.22,-0.4218878749961852
14.226667,-0.22656941434980316
14.233333,-0.1640675069429609
14.24,-0.15625476851710562
14.246667,-0.14844203009125034
14.253333,-0.0859401226844081
14.26,-0.04687643055513169
14.266667,-0.031250953703421125
14.273333,-0.023438215277565844
14.28,-0.015625476851710562
14.286667,-0.007812738425855281
14.293333,0.0
14.3,3.051850947599719e-05
14.306667,-0.007782219916379284
14.313333,-0.007812738425855281
14.32,-0.015625476851710562
14.326667,-0.007812738425855281
14.333333,-0.007812738425855281
14.34,0.0
14.346667,3.051850947599719e-05
14.353333,0.00784325693533128
14.36,0.01565599536118656
14.366667,0.03128147221289712
14.373333,0.0390942106387524
14.38,0.054719687490462965
14.386667,0.06253242591631825
14.393333,0.07034516434217353
14.4,0.06253242591631825
14.406667,0.046906949064607684
14.413333,0.02346873378704184
14.42,3.051850947599719e-05
14.426667,-0.023407696768089847
14.433333,-0.039063692129276406
14.44,-0.06250190740684225
14.446667,-0.07812738425855281
14.453333,-0.0859401226844081
14.46,-0.0859401226844081
14.466667,-0.07812738425855281
14.473333,-0.0859401226844081
14.48,-0.10937833796197394
14.486667,-0.13281655323953978
14.493333,-0.1640675069429609
14.5,-0.17969298379467147
14.506667,-0.1718802453688162
14.513333,-0.15625476851710562
14.52,-0.13281655323953978
14.526667,-0.10156559953611866
14.533333,-0.07031464583269753
14.54,-0.04687643055513169
14.546667,-0.039063692129276406
14.553333,-0.06250190740684225
14.56,-0.10937833796197394
14.566667,-0.15625476851710562
14.573333,-0.2109439374980926
14.58,-0.26563310647907956
14.586667,-0.32032227546006653
14.593333,-0.35157322916348765
14.6,-0.35938596758934294
14.606667,-0.35938596758934294
14.613333,-0.3437604907376324
14.62,0.14062929166539506
14.626667,0.9375591296121097
14.633333,-0.6328012939848018
14.64,-0.6328012939848018
14.646667,0.8359935300759911
14.653333,-0.2109134189886166
14.66,-0.7343974120303964
14.666667,-0.7343974120303964
14.673333,-0.7343974120303964
14.68,-0.6250190740684225
14.686667,-0.5078279976805933
14.693333,-0.47657704397717215
14.7,-0.4062623981444746
14.706667,-0.32032227546006653
14.713333,-0.27344584490493484
14.72,-0.26563310647907956
14.726667,-0.250007629627369
14.733333,-0.18750572222052675
14.74,-0.07031464583269753
14.746667,0.023438215277565844
14.753333,0.046906949064607684
14.76,0.046906949064607684
14.766667,0.02346873378704184
14.773333,-0.015594958342234566
14.78,-0.04687643055513169
14.786667,-0.06250190740684225
14.793333,-0.07031464583269753
14.8,-0.06250190740684225
14.806667,-0.06250190740684225
14.813333,-0.07031464583269753
14.82,-0.07031464583269753
14.826667,-0.06250190740684225
14.833333,-0.04687643055513169
14.84,-0.023438215277565844
14.846667,0.0
14.853333,0.00784325693533128
14.86,0.01565599536118656
14.866667,0.01565599536118656
14.873333,0.01565599536118656
14.88,0.01565599536118656
14.886667,0.01565599536118656
14.893333,0.00784325693533128
14.9,-0.007782219916379284
14.906667,-0.015625476851710562
14.913333,-0.015625476851710562
14.92,-0.023438215277565844
14.926667,-0.031250953703421125
14.933333,-0.039063692129276406
14.94,-0.039063692129276406
14.946667,-0.031250953703421125
14.953333,-0.015625476851710562
14.96,0.007812738425855281
14.966667,0.02346873378704184
14.973333,0.046906949064607684
14.98,0.07815790276802881
14.986667,0.11722159489730521
14.993333,0.14065981017487106
15.0,0.14847254860072634
15.006667,0.1250343333231605
15.013333,0.08597064119388409
15.02,0.046906949064607684
15.026667,0.01565599536118656
15.033333,-0.007782219916379284
15.04,-0.031250953703421125
15.046667,-0.05468916898098697
15.053333,-0.07031464583269753
15.06,-0.06250190740684225
15.066667,-0.04687643055513169
15.073333,0.31250953703421125
15.08,-0.8906216620380261
15.086667,-0.4218573564867092
15.093333,-0.4218573564867092
15.1,-0.8124942777794733
15.106667,0.21878719443342387
15.113333,-0.43748283333841975
15.12,-0.5312662129581591
15.126667,-0.5312662129581591
15.133333,-0.4609515671254616
15.14,-0.39063692129276406
15.146667,-0.3828241828669088
15.153333,-0.3828241828669088
15.16,-0.3671987060151982
15.166667,-0.3437604907376324
15.173333,-0.2968840601825007
15.18,-0.2031311990722373
15.186667,-0.1250038148136845
15.193333,-0.10156559953611866
15.2,-0.10156559953611866
15.206667,-0.10937833796197394
15.213333,-0.10937833796197394
15.22,-0.10937833796197394
15.226667,-0.09375286111026337
15.233333,-0.0859401226844081
15.24,-0.07812738425855281
15.246667,-0.07031464583269753
15.253333,-0.07031464583269753
15.26,-0.05468916898098697
15.266667,-0.039063692129276406
15.273333,-0.015625476851710562
15.28,0.007812738425855281
15.286667,0.03128147221289712
15.293333,0.054719687490462965
15.3,0.08597064119388409
15.306667,0.10940885647144993
15.313333,0.11722159489730521
15.32,0.10159611804559465
15.326667,0.07034516434217353
15.333333,0.03128147221289712
15.34,-0.015594958342234566
15.346667,-0.06250190740684225
15.353333,-0.10156559953611866
15.36,-0.13281655323953978
15.366667,-0.14844203009125034
15.373333,-0.14062929166539506
15.38,-0.11719107638782922
15.386667,-0.0859401226844081
15.393333,-0.05468916898098697
15.4,-0.023438215277565844
15.406667,0.0
15.413333,0.01565599536118656
15.42,0.02346873378704184
15.426667,0.046906949064607684
15.433333,0.07034516434217353
15.44,0.10159611804559465
15.446667,0.11722159489730521
15.453333,0.11722159489730521
15.46,0.11722159489730521
15.466667,0.10159611804559465
15.473333,0.07815790276802881
15.48,0.0390942106387524
15.486667,-0.015594958342234566
15.493333,-0.06250190740684225
15.5,-0.0859401226844081
15.506667,-0.10156559953611866
15.513333,-0.10156559953611866
15.52,-0.07812738425855281
15.526667,0.5703299050874355
15.533333,-0.749992370372631
15.54,-0.4062318796349986
15.546667,-0.4062318796349986
15.553333,-0.9687490462965789
15.56,-0.0859096041749321
15.566667,-0.6406445509201331
15.573333,-0.6406445509201331
15.58,-0.5390789513840144
15.586667,-0.2890713217566454
15.593333,-0.13281655323953978
15.6,-0.13281655323953978
15.606667,-0.2031311990722373
15.613333,-0.2812585833307901
15.62,-0.2890713217566454
15.626667,-0.2812585833307901
15.633333,-0.2812585833307901
15.64,-0.2812585833307901
15.646667,-0.2812585833307901
15.653333,-0.21875667592394787
15.66,-0.10156559953611866
15.666667,-0.07031464583269753
15.673333,-0.06250190740684225
15.68,-0.05468916898098697
15.686667,-0.05468916898098697
15.693333,-0.04687643055513169
15.7,-0.04687643055513169
15.706667,-0.04687643055513169
15.713333,-0.031250953703421125
15.72,-0.031250953703421125
15.726667,-0.023438215277565844
15.733333,0.0
15.74,0.02346873378704184
15.746667,0.046906949064607684
15.753333,0.07815790276802881
15.76,0.09378337961973937
15.766667,0.10159611804559465
15.773333,0.10159611804559465
15.78,0.10159611804559465
15.786667,0.09378337961973937
15.793333,0.09378337961973937
15.8,0.08597064119388409
15.806667,0.07034516434217353
15.813333,0.0390942106387524
15.82,0.00784325693533128
15.826667,-0.023407696768089847
15.833333,-0.039063692129276406
15.84,-0.06250190740684225
15.846667,-0.09375286111026337
15.853333,-0.1250038148136845
15.86,-0.14062929166539506
15.866667,-0.1250038148136845
15.873333,-0.07812738425855281
15.88,-0.039063692129276406
15.886667,0.007812738425855281
15.893333,0.0390942106387524
15.9,0.07815790276802881
15.906667,0.10940885647144993
15.913333,0.1250343333231605
15.92,0.10940885647144993
15.926667,0.07815790276802881
15.933333,0.0390942106387524
15.94,0.00784325693533128
15.946667,-0.023407696768089847
15.953333,-0.05468916898098697
15.96,-0.0859401226844081
15.966667,-0.0859401226844081
15.973333,-0.031250953703421125
15.98,0.9922177800836207
15.986667,-0.6249885555589465
15.993333,-0.6249885555589465
16.0,-0.6562395092623676
16.006667,0.7891170995208594
16.013333,-0.1718497268593402
16.02,-0.6172063356425672
16.026667,-0.6172063356425672
16.033333,-0.500015259254738
16.04,-0.30469679860835597
16.046667,-0.2109439374980926
16.053333,-0.2109439374980926
16.06,-0.21875667592394787
16.066667,-0.21875667592394787
16.073333,-0.2031311990722373
16.08,-0.14062929166539506
16.086667,-0.0859401226844081
16.093333,-0.0859401226844081
16.1,-0.09375286111026337
16.106667,-0.09375286111026337
16.113333,-0.07031464583269753
16.12,-0.023438215277565844
16.126667,0.023438215277565844
16.133333,0.054719687490462965
16.14,0.07815790276802881
16.146667,0.09378337961973937
16.153333,0.10940885647144993
16.16,0.1250343333231605
16.166667,0.15628528702658162
16.173333,0.17972350230414746
16.18,0.18753624073000275
16.186667,0.19534897915585803
16.193333,0.19534897915585803
16.2,0.19534897915585803
16.206667,0.2031617175817133
16.213333,0.2109744560075686
16.22,0.2109744560075686
16.226667,0.19534897915585803
16.233333,0.17191076387829218
16.24,0.14847254860072634
16.246667,0.1250343333231605
16.253333,0.10159611804559465
16.26,0.08597064119388409
16.266667,0.07034516434217353
16.273333,0.046906949064607684
16.28,0.03128147221289712
16.286667,0.03128147221289712
16.293333,0.046906949064607684
16.3,0.06253242591631825
16.306667,0.07034516434217353
16.313333,0.07034516434217353
16.32,0.07034516434217353
16.326667,0.07815790276802881
16.333333,0.09378337961973937
16.34,0.11722159489730521
16.346667,0.1250343333231605
16.353333,0.11722159489730521
16.36,0.09378337961973937
16.366667,0.07034516434217353
16.373333,0.054719687490462965
16.38,0.03128147221289712
16.386667,0.00784325693533128
16.393333,-0.015594958342234566
16.4,-0.04687643055513169
16.406667,-0.05468916898098697
16.413333,-0.04687643055513169
16.42,-0.039063692129276406
16.426667,0.0
16.433333,0.8906826990569781
16.44,-0.6874904629657888
16.446667,-0.6874904629657888
16.453333,-0.804681539353618
16.46,0.500045777764214
16.466667,-0.4062318796349986
16.473333,-0.7422101504562517
16.48,-0.7422101504562517
16.486667,-0.5234534745323038
16.493333,-0.31250953703421125
16.5,-0.30469679860835597
16.506667,-0.30469679860835597
16.513333,-0.31250953703421125
16.52,-0.31250953703421125
16.526667,-0.27344584490493484
16.533333,-0.17969298379467147
16.54,-0.09375286111026337
16.546667,-0.05468916898098697
16.553333,-0.039063692129276406
16.56,0.007812738425855281
16.566667,0.046906949064607684
16.573333,0.054719687490462965
16.58,0.054719687490462965
16.586667,0.06253242591631825
16.593333,0.07815790276802881
16.6,0.10940885647144993
16.606667,0.1250343333231605
16.613333,0.13284707174901578
16.62,0.14847254860072634
16.626667,0.15628528702658162
16.633333,0.17191076387829218
16.64,0.19534897915585803
16.646667,0.2031617175817133
16.653333,0.18753624073000275
16.66,0.14847254860072634
16.666667,0.1250343333231605
16.673333,0.10940885647144993
16.68,0.11722159489730521
16.686667,0.13284707174901578
16.693333,0.13284707174901578
16.7,0.13284707174901578
16.706667,0.11722159489730521
16.713333,0.10940885647144993
16.72,0.10159611804559465
16.726667,0.07815790276802881
16.733333,0.046906949064607684
16.74,0.00784325693533128
16.746667,-0.015594958342234566
16.753333,-0.039063692129276406
16.76,-0.023438215277565844
16.766667,0.015625476851710562
16.773333,0.06253242591631825
16.78,0.11722159489730521
16.786667,0.15628528702658162
16.793333,0.1640980254524369
16.8,0.1640980254524369
16.806667,0.15628528702658162
16.813333,0.14847254860072634
16.82,0.11722159489730521
16.826667,0.07815790276802881
16.833333,0.03128147221289712
16.84,-0.007782219916379284
16.846667,-0.039063692129276406
16.853333,-0.04687643055513169
16.86,-0.05468916898098697
16.866667,-0.07031464583269753
16.873333,-0.06250190740684225
16.88,0.39844965971861934
16.886667,-0.8281197546311838
16.893333,-0.3827936643574328
16.9,-0.3827936643574328
16.906667,-0.7187414166692099
16.913333,0.3672292245246742
16.92,-0.3827936643574328
16.926667,-0.5703299050874355
16.933333,-0.5703299050874355
16.94,-0.39844965971861934
16.946667,-0.2031311990722373
16.953333,-0.14844203009125034
16.96,-0.14062929166539506
16.966667,-0.14062929166539506
16.973333,-0.10937833796197394
16.98,-0.09375286111026337
16.986667,-0.09375286111026337
16.993333,-0.09375286111026337
17.0,-0.09375286111026337
17.006667,-0.07031464583269753
17.013333,0.023438215277565844
17.02,0.054719687490462965
17.026667,0.07034516434217353
17.033333,0.07034516434217353
17.04,0.07034516434217353
17.046667,0.07034516434217353
17.053333,0.07815790276802881
17.06,0.10159611804559465
17.066667,0.14065981017487106
17.073333,0.1640980254524369
17.08,0.19534897915585803
17.086667,0.21878719443342387
17.093333,0.23441267128513443
17.1,0.2578508865627003
17.106667,0.26566362498855556
17.113333,0.26566362498855556
17.12,0.2578508865627003
17.126667,0.23441267128513443
17.133333,0.2031617175817133
17.14,0.17191076387829218
17.146667,0.14847254860072634
17.153333,0.11722159489730521
17.16,0.08597064119388409
17.166667,0.046906949064607684
17.173333,0.00784325693533128
17.18,-0.015594958342234566
17.186667,-0.031250953703421125
17.193333,-0.039063692129276406
17.2,-0.04687643055513169
17.206667,-0.04687643055513169
17.213333,-0.039063692129276406
17.22,-0.031250953703421125
17.226667,-0.015625476851710562
17.233333,0.007812738425855281
17.24,0.0390942106387524
17.246667,0.07034516434217353
17.253333,0.07815790276802881
17.26,0.07034516434217353
17.266667,0.046906949064607684
17.273333,0.03128147221289712
17.28,0.01565599536118656
17.286667,3.051850947599719e-05
17.293333,-0.03122043519394513
17.3,-0.06250190740684225
17.306667,-0.07812738425855281
17.313333,-0.0859401226844081
17.32,-0.0859401226844081
17.326667,-0.07812738425855281
17.333333,-0.04687643055513169
17.34,0.7031464583269753
17.346667,-0.7890560625019074
17.353333,-0.6562395092623676
17.36,-0.6562395092623676
17.366667,0.8438062685018464
17.373333,-0.06247138889736625
17.38,-0.4687643055513169
17.386667,-0.4687643055513169
17.393333,-0.2890713217566454
17.4,-0.10156559953611866
17.406667,-0.04687643055513169
17.413333,-0.04687643055513169
17.42,-0.04687643055513169
17.426667,-0.023438215277565844
17.433333,0.031250953703421125
17.44,0.08597064119388409
17.446667,0.09378337961973937
17.453333,0.09378337961973937
17.46,0.08597064119388409
17.466667,0.09378337961973937
17.473333,0.09378337961973937
17.48,0.07815790276802881
17.486667,0.06253242591631825
17.493333,0.046906949064607684
17.5,0.03128147221289712
17.506667,0.03128147221289712
17.513333,0.02346873378704184
17.52,0.02346873378704184
17.526667,0.00784325693533128
17.533333,-0.007782219916379284
17.54,-0.007812738425855281
17.546667,-0.007812738425855281
17.553333,0.007812738425855281
17.56,0.01565599536118656
17.566667,0.03128147221289712
17.573333,0.046906949064607684
17.58,0.06253242591631825
17.586667,0.07034516434217353
17.593333,0.07815790276802881
17.6,0.08597064119388409
17.606667,0.07815790276802881
17.613333,0.07034516434217353
17.62,0.054719687490462965
17.626667,0.0390942106387524
17.633333,0.0390942106387524
17.64,0.03128147221289712
17.646667,0.03128147221289712
17.653333,0.01565599536118656
17.66,0.00784325693533128
17.666667,0.00784325693533128
17.673333,3.051850947599719e-05
17.68,-0.007782219916379284
17.686667,-0.007812738425855281
17.693333,-0.015625476851710562
17.7,-0.023438215277565844
17.706667,-0.015625476851710562
17.713333,-0.015625476851710562
17.72,-0.031250953703421125
17.726667,-0.07031464583269753
17.733333,-0.10937833796197394
17.74,-0.14062929166539506
17.746667,-0.17969298379467147
17.753333,-0.2109439374980926
17.76,-0.250007629627369
17.766667,-0.2812585833307901
17.773333,-0.2890713217566454
17.78,-0.27344584490493484
17.786667,-0.250007629627369
17.793333,-0.19531846064638203
17.8,0.7734611041596728
17.806667,-0.7421796319467757
17.813333,-0.7031159398174993
17.82,-0.7031159398174993
17.826667,0.6875514999847407
17.833333,-0.30466628009887997
17.84,-0.69533371990112
17.846667,-0.69533371990112
17.853333,-0.500015259254738
17.86,-0.31250953703421125
17.866667,-0.2968840601825007
17.873333,-0.2968840601825007
17.88,-0.2968840601825007
17.886667,-0.2890713217566454
17.893333,-0.250007629627369
17.9,-0.2109439374980926
17.906667,-0.2109439374980926
17.913333,-0.2109439374980926
17.92,-0.2109439374980926
17.926667,-0.18750572222052675
17.933333,-0.0859401226844081
17.94,-0.04687643055513169
17.946667,-0.031250953703421125
17.953333,-0.031250953703421125
17.96,-0.031250953703421125
17.966667,-0.039063692129276406
17.973333,-0.031250953703421125
17.98,-0.015625476851710562
17.986667,0.0
17.993333,0.00784325693533128
18.0,0.01565599536118656
18.006667,0.03128147221289712
18.013333,0.07034516434217353
18.02,0.10940885647144993
18.026667,0.14065981017487106
18.033333,0.15628528702658162
18.04,0.15628528702658162
18.046667,0.14847254860072634
18.053333,0.13284707174901578
18.06,0.10940885647144993
18.066667,0.08597064119388409
18.073333,0.06253242591631825
18.08,0.046906949064607684
18.086667,0.03128147221289712
18.093333,0.02346873378704184
18.1,0.02346873378704184
18.106667,0.02346873378704184
18.113333,0.03128147221289712
18.12,0.03128147221289712
18.126667,0.01565599536118656
18.133333,0.00784325693533128
18.14,-0.007782219916379284
18.146667,-0.015625476851710562
18.153333,-0.007812738425855281
18.16,0.015625476851710562
18.166667,0.054719687490462965
18.173333,0.08597064119388409
18.18,0.10940885647144993
18.186667,0.1250343333231605
18.193333,0.11722159489730521
18.2,0.10159611804559465
18.206667,0.07815790276802881
18.213333,0.0390942106387524
18.22,-0.007782219916379284
18.226667,-0.05468916898098697
18.233333,-0.09375286111026337
18.24,-0.1250038148136845
18.246667,-0.15625476851710562
18.253333,-0.06250190740684225
18.26,0.3437604907376324
18.266667,-0.9218726157414472
18.273333,-0.4921720023194067
18.28,-0.4921720023194067
18.286667,-0.7187414166692099
18.293333,0.48442030091250343
18.3,-0.44529557176427503
18.306667,-0.8125247962889492
18.313333,-0.8125247962889492
18.32,-0.6406445509201331
18.326667,-0.3671987060151982
18.333333,-0.250007629627369
18.34,-0.21875667592394787
18.346667,-0.21875667592394787
18.353333,-0.21875667592394787
18.36,-0.2109439374980926
18.366667,-0.1640675069429609
18.373333,-0.09375286111026337
18.38,-0.039063692129276406
18.386667,-0.031250953703421125
18.393333,-0.023438215277565844
18.4,-0.023438215277565844
18.406667,-0.031250953703421125
18.413333,-0.031250953703421125
18.42,-0.039063692129276406
18.426667,-0.039063692129276406
18.433333,-0.039063692129276406
18.44,-0.039063692129276406
18.446667,-0.031250953703421125
18.453333,-0.015625476851710562
18.46,-0.007812738425855281
18.466667,0.007812738425855281
18.473333,0.02346873378704184
18.48,0.0390942106387524
18.486667,0.06253242591631825
18.493333,0.07034516434217353
18.5,0.07815790276802881
18.506667,0.07815790276802881
18.513333,0.07034516434217353
18.52,0.06253242591631825
18.526667,0.054719687490462965
18.533333,0.046906949064607684
18.54,0.02346873378704184
18.546667,-0.007782219916379284
18.553333,-0.04687643055513169
18.56,-0.07031464583269753
18.566667,-0.0859401226844081
18.573333,-0.10156559953611866
18.58,-0.1250038148136845
18.586667,-0.14844203009125034
18.593333,-0.15625476851710562
18.6,-0.14844203009125034
18.606667,-0.1250038148136845
18.613333,-0.10937833796197394
18.62,-0.0859401226844081
18.626667,-0.06250190740684225
18.633333,-0.031250953703421125
18.64,0.0
18.646667,0.02346873378704184
18.653333,0.02346873378704184
18.66,0.02346873378704184
18.666667,0.03128147221289712
18.673333,0.0390942106387524
18.68,0.0390942106387524
18.686667,0.0390942106387524
18.693333,0.03128147221289712
18.7,0.03128147221289712
18.706667,0.03128147221289712
18.713333,-0.03122043519394513
18.72,0.023438215277565844
18.726667,0.48442030091250343
18.733333,-0.5859248634296701
18.74,-0.07028412732322153
18.746667,-0.07028412732322153
18.753333,-0.6484267708365123
18.76,0.14847254860072634
18.766667,-0.4921720023194067
18.773333,-0.4922025208288827
18.78,-0.4140751365703299
18.786667,-0.3437604907376324
18.793333,-0.30469679860835597
18.8,-0.30469679860835597
18.806667,-0.30469679860835597
18.813333,-0.27344584490493484
18.82,-0.26563310647907956
18.826667,-0.27344584490493484
18.833333,-0.35938596758934294
18.84,-0.44532609027375103
18.846667,-0.44532609027375103
18.853333,-0.3828241828669088
18.86,-0.2968840601825007
18.866667,-0.22656941434980316
18.873333,-0.18750572222052675
18.88,-0.15625476851710562
18.886667,-0.14062929166539506
18.893333,-0.13281655323953978
18.9,-0.07812738425855281
18.906667,-0.039063692129276406
18.913333,-0.031250953703421125
18.92,-0.023438215277565844
18.926667,-0.023438215277565844
18.933333,-0.023438215277565844
18.94,-0.007812738425855281
18.946667,0.015625476851710562
18.953333,0.0390942106387524
18.96,0.054719687490462965
18.966667,0.06253242591631825
18.973333,0.07034516434217353
18.98,0.07815790276802881
18.986667,0.07815790276802881
18.993333,0.054719687490462965
19.0,0.01565599536118656
19.006667,-0.023407696768089847
19.013333,-0.04687643055513169
19.02,-0.07031464583269753
19.026667,-0.09375286111026337
19.033333,-0.10937833796197394
19.04,-0.11719107638782922
19.046667,-0.10156559953611866
19.053333,-0.07031464583269753
19.06,-0.039063692129276406
19.066667,0.0
19.073333,0.0390942106387524
19.08,0.08597064119388409
19.086667,0.14065981017487106
19.093333,0.18753624073000275
19.1,0.22659993285927915
19.106667,0.250038148136845
19.113333,0.2578508865627003
19.12,0.23441267128513443
19.126667,0.18753624073000275
19.133333,0.13284707174901578
19.14,0.07815790276802881
19.146667,0.0390942106387524
19.153333,0.00784325693533128
19.16,-0.015594958342234566
19.166667,-0.015625476851710562
19.173333,0.0
19.18,0.03128147221289712
19.186667,0.43754387035737174
19.193333,-0.804681539353618
19.2,-0.3671681875057222
19.206667,-0.3671681875057222
19.213333,-0.749992370372631
19.22,0.27347636341441084
19.226667,-0.42967009491256447
19.233333,-0.5468916898098697
19.24,-0.5468916898098697
19.246667,-0.39844965971861934
19.253333,-0.22656941434980316
19.26,-0.19531846064638203
19.266667,-0.19531846064638203
19.273333,-0.23438215277565844
19.28,-0.3437604907376324
19.286667,-0.4218878749961852
19.293333,-0.4218878749961852
19.3,-0.35157322916348765
19.306667,-0.14062929166539506
19.313333,0.031250953703421125
19.32,0.06253242591631825
19.326667,0.06253242591631825
19.333333,0.0390942106387524
19.34,0.01565599536118656
19.346667,3.051850947599719e-05
19.353333,-0.007782219916379284
19.36,-0.015625476851710562
19.366667,-0.023438215277565844
19.373333,-0.039063692129276406
19.38,-0.04687643055513169
19.386667,-0.031250953703421125
19.393333,0.0
19.4,0.03128147221289712
19.406667,0.06253242591631825
19.413333,0.09378337961973937
19.42,0.11722159489730521
19.426667,0.14847254860072634
19.433333,0.14847254860072634
19.44,0.13284707174901578
19.446667,0.10159611804559465
19.453333,0.07034516434217353
19.46,0.0390942106387524
19.466667,0.00784325693533128
19.473333,-0.03122043519394513
19.48,-0.07031464583269753
19.486667,-0.09375286111026337
19.493333,-0.10937833796197394
19.5,-0.10937833796197394
19.506667,-0.10937833796197394
19.513333,-0.10937833796197394
19.52,-0.10156559953611866
19.526667,-0.07812738425855281
19.533333,-0.04687643055513169
19.54,0.0
19.546667,0.03128147221289712
19.553333,0.06253242591631825
19.56,0.08597064119388409
19.566667,0.11722159489730521
19.573333,0.14065981017487106
19.58,0.15628528702658162
19.586667,0.14847254860072634
19.593333,0.11722159489730521
19.6,0.07815790276802881
19.606667,0.054719687490462965
19.613333,0.02346873378704184
19.62,3.051850947599719e-05
19.626667,-0.023407696768089847
19.633333,0.007812738425855281
19.64,0.06253242591631825
19.646667,0.43754387035737174
19.653333,-0.7343668935209204
19.66,-0.27341532639545885
19.666667,-0.27341532639545885
19.673333,-0.7968688009277627
19.68,0.17972350230414746
19.686667,-0.35935544907986694
19.693333,-0.39844965971861934
19.7,-0.39844965971861934
19.706667,-0.39063692129276406
19.713333,-0.39063692129276406
19.72,-0.39844965971861934
19.726667,-0.4062623981444746
19.733333,-0.4062623981444746
19.74,-0.3750114444410535
19.746667,-0.31250953703421125
19.753333,-0.22656941434980316
19.76,-0.1250038148136845
19.766667,-0.039063692129276406
19.773333,-0.015625476851710562
19.78,-0.007812738425855281
19.786667,0.0
19.793333,3.051850947599719e-05
19.8,3.051850947599719e-05
19.806667,-0.007782219916379284
19.813333,0.0
19.82,0.01565599536118656
19.826667,0.02346873378704184
19.833333,0.03128147221289712
19.84,0.046906949064607684
19.846667,0.07034516434217353
19.853333,0.10159611804559465
19.86,0.1250343333231605
19.866667,0.14847254860072634
19.873333,0.14847254860072634
19.88,0.14847254860072634
19.886667,0.1250343333231605
19.893333,0.09378337961973937
19.9,0.054719687490462965
19.906667,0.01565599536118656
19.913333,-0.015594958342234566
19.92,-0.04687643055513169
19.926667,-0.06250190740684225
19.933333,-0.07031464583269753
19.94,-0.06250190740684225
19.946667,-0.06250190740684225
19.953333,-0.06250190740684225
19.96,-0.06250190740684225
19.966667,-0.07031464583269753
19.973333,-0.05468916898098697
19.98,-0.04687643055513169
19.986667,-0.031250953703421125
19.993333,-0.015625476851710562
20.0,0.023438215277565844
20.006667,0.06253242591631825
20.013333,0.10940885647144993
20.02,0.14065981017487106
20.026667,0.1640980254524369
20.033333,0.1640980254524369
20.04,0.15628528702658162
20.046667,0.1250343333231605
20.053333,0.09378337961973937
20.06,0.054719687490462965
20.066667,0.02346873378704184
20.073333,-0.015594958342234566
20.08,-0.04687643055513169
20.086667,-0.06250190740684225
20.093333,-0.039063692129276406
20.1,0.023438215277565844
20.106667,0.945371868037965
20.113333,-0.7656178472243416
20.12,-0.7656178472243416
20.126667,-0.8749961851863155
20.133333,0.500045777764214
20.14,-0.35154271065401166
20.146667,-0.6797082430494095
20.153333,-0.6797082430494095
20.16,-0.47657704397717215
20.166667,-0.2812585833307901
20.173333,-0.2812585833307901
20.18,-0.2968840601825007
20.186667,-0.32032227546006653
20.193333,-0.32032227546006653
20.2,-0.27344584490493484
20.206667,-0.1640675069429609
20.213333,-0.04687643055513169
20.22,0.007812738425855281
20.226667,0.00784325693533128
20.233333,0.01565599536118656
20.24,0.02346873378704184
20.246667,0.03128147221289712
20.253333,0.0390942106387524
20.26,0.054719687490462965
20.266667,0.07815790276802881
20.273333,0.09378337961973937
20.28,0.10159611804559465
20.286667,0.10940885647144993
20.293333,0.1250343333231605
20.3,0.14847254860072634
20.306667,0.17972350230414746
20.313333,0.2031617175817133
20.32,0.21878719443342387
20.326667,0.21878719443342387
20.333333,0.19534897915585803
20.34,0.17972350230414746
20.346667,0.15628528702658162
20.353333,0.1250343333231605
20.36,0.08597064119388409
20.366667,0.046906949064607684
20.373333,3.051850947599719e-05
20.38,-0.023407696768089847
20.386667,-0.015625476851710562
20.393333,-0.015625476851710562
20.4,-0.023438215277565844
20.406667,-0.039063692129276406
20.413333,-0.04687643055513169
20.42,-0.05468916898098697
20.426667,-0.05468916898098697
20.433333,-0.039063692129276406
20.44,-0.031250953703421125
20.446667,-0.015625476851710562
20.453333,0.015625476851710562
20.46,0.054719687490462965
20.466667,0.10159611804559465
20.473333,0.13284707174901578
20.48,0.14065981017487106
20.486667,0.11722159489730521
20.493333,0.07034516434217353
20.5,0.02346873378704184
20.506667,-0.023407696768089847
20.513333,-0.06250190740684225
20.52,-0.09375286111026337
20.526667,-0.11719107638782922
20.533333,-0.1250038148136845
20.54,-0.11719107638782922
20.546667,-0.0859401226844081
20.553333,0.5234534745323038
20.56,-0.7812433240760521
20.566667,-0.47654652546769616
20.573333,-0.47654652546769616
20.58,0.9766228217413861
20.586667,-0.07028412732322153
20.593333,-0.5859553819391461
20.6,-0.5859553819391461
20.606667,-0.5703299050874355
20.613333,-0.4609515671254616
20.62,-0.3359477523117771
20.626667,-0.3281350138859218
20.633333,-0.32032227546006653
20.64,-0.27344584490493484
20.646667,-0.17969298379467147
20.653333,-0.10156559953611866
20.66,-0.10156559953611866
20.666667,-0.14844203009125034
20.673333,-0.19531846064638203
20.68,-0.19531846064638203
20.686667,-0.14844203009125034
20.693333,-0.10156559953611866
20.7,-0.04687643055513169
20.706667,-0.007812738425855281
20.713333,0.015625476851710562
20.72,0.03128147221289712
20.726667,0.0390942106387524
20.733333,0.046906949064607684
20.74,0.08597064119388409
20.746667,0.1250343333231605
20.753333,0.14065981017487106
20.76,0.15628528702658162
20.766667,0.1640980254524369
20.773333,0.17191076387829218
20.78,0.17972350230414746
20.786667,0.18753624073000275
20.793333,0.18753624073000275
20.8,0.1640980254524369
20.806667,0.13284707174901578
20.813333,0.10940885647144993
20.82,0.08597064119388409
20.826667,0.07034516434217353
20.833333,0.054719687490462965
20.84,0.046906949064607684
20.846667,0.0390942106387524
20.853333,0.0390942106387524
20.86,0.03128147221289712
20.866667,0.03128147221289712
20.873333,0.03128147221289712
20.88,0.02346873378704184
20.886667,0.02346873378704184
20.893333,0.03128147221289712
20.9,0.0390942106387524
20.906667,0.06253242591631825
20.913333,0.07815790276802881
20.92,0.08597064119388409
20.926667,0.09378337961973937
20.933333,0.09378337961973937
20.94,0.09378337961973937
20.946667,0.07815790276802881
20.953333,0.046906949064607684
20.96,0.01565599536118656
20.966667,-0.015594958342234566
20.973333,-0.039063692129276406
20.98,-0.05468916898098697
20.986667,-0.07812738425855281
20.993333,-0.10156559953611866
21.0,-0.0859401226844081
21.006667,0.8828394421216468
21.013333,-0.6406140324106571
21.02,-0.6406140324106571
21.026667,-0.7421796319467757
21.033333,0.6016113773003327
21.04,-0.31247901852473525
21.046667,-0.6797082430494095
21.053333,-0.6797082430494095
21.06,-0.5625171666615802
21.066667,-0.39844965971861934
21.073333,-0.2968840601825007
21.08,-0.17969298379467147
21.086667,-0.09375286111026337
21.093333,-0.05468916898098697
21.1,-0.05468916898098697
21.106667,-0.05468916898098697
21.113333,-0.039063692129276406
21.12,-0.015625476851710562
21.126667,0.0
21.133333,3.051850947599719e-05
21.14,-0.007782219916379284
21.146667,-0.007812738425855281
21.153333,0.0
21.16,0.02346873378704184
21.166667,0.046906949064607684
21.173333,0.07034516434217353
21.18,0.07815790276802881
21.186667,0.08597064119388409
21.193333,0.10159611804559465
21.2,0.11722159489730521
21.206667,0.13284707174901578
21.213333,0.14065981017487106
21.22,0.14847254860072634
21.226667,0.14847254860072634
21.233333,0.15628528702658162
21.24,0.15628528702658162
21.246667,0.1640980254524369
21.253333,0.17191076387829218
21.26,0.1640980254524369
21.266667,0.13284707174901578
21.273333,0.09378337961973937
21.28,0.06253242591631825
21.286667,0.0390942106387524
21.293333,0.01565599536118656
21.3,-0.007782219916379284
21.306667,-0.031250953703421125
21.313333,-0.039063692129276406
21.32,-0.039063692129276406
21.326667,-0.031250953703421125
21.333333,-0.015625476851710562
21.34,-0.007812738425855281
21.346667,0.0
21.353333,0.01565599536118656
21.36,0.046906949064607684
21.366667,0.07034516434217353
21.373333,0.10159611804559465
21.38,0.10940885647144993
21.386667,0.10159611804559465
21.393333,0.07815790276802881
21.4,0.06253242591631825
21.406667,0.0390942106387524
21.413333,0.00784325693533128
21.42,-0.023407696768089847
21.426667,-0.06250190740684225
21.433333,-0.10156559953611866
21.44,-0.11719107638782922
21.446667,-0.22656941434980316
21.453333,0.015625476851710562
21.46,0.6797387615588855
21.466667,-0.6796777245399335
21.473333,-0.4687337870418409
21.48,-0.4687337870418409
21.486667,0.8828699606311228
21.493333,-0.24216437269203772
21.5,-0.7265846736045412
21.506667,-0.7265846736045412
21.513333,-0.5390789513840144
21.52,-0.3437604907376324
21.526667,-0.30469679860835597
21.533333,-0.250007629627369
21.54,-0.11719107638782922
21.546667,0.0
21.553333,3.051850947599719e-05
21.56,-0.023407696768089847
21.566667,-0.06250190740684225
21.573333,-0.07031464583269753
21.58,-0.06250190740684225
21.586667,-0.07031464583269753
21.593333,-0.07812738425855281
21.6,-0.0859401226844081
21.606667,-0.07031464583269753
21.613333,-0.031250953703421125
21.62,0.007812738425855281
21.626667,0.03128147221289712
21.633333,0.054719687490462965
21.64,0.07034516434217353
21.646667,0.08597064119388409
21.653333,0.10159611804559465
21.66,0.10940885647144993
21.666667,0.10159611804559465
21.673333,0.09378337961973937
21.68,0.10159611804559465
21.686667,0.10940885647144993
21.693333,0.13284707174901578
21.7,0.14847254860072634
21.706667,0.15628528702658162
21.713333,0.14847254860072634
21.72,0.1250343333231605
21.726667,0.08597064119388409
21.733333,0.03128147221289712
21.74,-0.007782219916379284
21.746667,-0.04687643055513169
21.753333,-0.07031464583269753
21.76,-0.07812738425855281
21.766667,-0.07812738425855281
21.773333,-0.05468916898098697
21.78,-0.039063692129276406
21.786667,-0.031250953703421125
21.793333,-0.023438215277565844
21.8,-0.023438215277565844
21.806667,-0.023438215277565844
21.813333,-0.007812738425855281
21.82,0.007812738425855281
21.826667,0.03128147221289712
21.833333,0.07034516434217353
21.84,0.07815790276802881
21.846667,0.07034516434217353
21.853333,0.046906949064607684
21.86,0.02346873378704184
21.866667,-0.007782219916379284
21.873333,-0.04687643055513169
21.88,-0.09375286111026337
21.886667,-0.14062929166539506
21.893333,-0.15625476851710562
21.9,-0.039063692129276406
21.906667,0.11719107638782922
21.913333,0.5312967314676351
21.92,-0.7734305856501968
21.926667,-0.3671681875057222
21.933333,-0.3671681875057222
21.94,-0.7968688009277627
21.946667,0.14065981017487106
21.953333,-0.6093630787072359
21.96,-0.7422101504562517
21.966667,-0.7422101504562517
21.973333,-0.5390789513840144
21.98,-0.24219489120151372
21.986667,-0.10937833796197394
21.993333,-0.07812738425855281
22.0,-0.07812738425855281
22.006667,-0.10937833796197394
22.013333,-0.1718802453688162
22.02,-0.2109439374980926
22.026667,-0.22656941434980316
22.033333,-0.22656941434980316
22.04,-0.2031311990722373
22.046667,-0.1640675069429609
22.053333,-0.13281655323953978
22.06,-0.10156559953611866
22.066667,-0.07812738425855281
22.073333,-0.07031464583269753
22.08,-0.05468916898098697
22.086667,-0.015625476851710562
22.093333,0.023438215277565844
22.1,0.0390942106387524
22.106667,0.054719687490462965
22.113333,0.054719687490462965
22.12,0.06253242591631825
22.126667,0.07034516434217353
22.133333,0.07034516434217353
22.14,0.07034516434217353
22.146667,0.06253242591631825
22.153333,0.06253242591631825
22.16,0.06253242591631825
22.166667,0.07034516434217353
22.173333,0.06253242591631825
22.18,0.054719687490462965
22.186667,0.046906949064607684
22.193333,0.046906949064607684
22.2,0.0390942106387524
22.206667,0.02346873378704184
22.213333,3.051850947599719e-05
22.22,-0.023407696768089847
22.226667,-0.04687643055513169
22.233333,-0.05468916898098697
22.24,-0.04687643055513169
22.246667,-0.04687643055513169
22.253333,-0.05468916898098697
22.26,-0.04687643055513169
22.266667,-0.031250953703421125
22.273333,-0.015625476851710562
22.28,0.015625476851710562
22.286667,0.03128147221289712
22.293333,0.0390942106387524
22.3,0.03128147221289712
22.306667,0.00784325693533128
22.313333,-0.007782219916379284
22.32,-0.023438215277565844
22.326667,-0.04687643055513169
22.333333,-0.07812738425855281
22.34,-0.10937833796197394
22.346667,-0.14844203009125034
22.353333,-0.1718802453688162
22.36,-0.18750572222052675
22.366667,-0.19531846064638203
22.373333,-0.18750572222052675
22.38,0.5312662129581591
22.386667,-0.945310831019013
22.393333,-0.8281197546311838
22.4,-0.8281197546311838
22.406667,0.5391094698934904
22.413333,-0.4531083101901303
22.42,-0.8125247962889492
22.426667,-0.8125247962889492
22.433333,-0.6172063356425672
22.44,-0.4218878749961852
22.446667,-0.4218878749961852
22.453333,-0.42970061342204047
22.46,-0.44532609027375103
22.466667,-0.44532609027375103
22.473333,-0.4218878749961852
22.48,-0.35157322916348765
22.486667,-0.250007629627369
22.493333,-0.18750572222052675
22.5,-0.1718802453688162
22.506667,-0.1640675069429609
22.513333,-0.13281655323953978
22.52,-0.10156559953611866
22.526667,-0.07031464583269753
22.533333,-0.039063692129276406
22.54,-0.015625476851710562
22.546667,0.0
22.553333,0.01565599536118656
22.56,0.01565599536118656
22.566667,0.046906949064607684
22.573333,0.07034516434217353
22.58,0.09378337961973937
22.586667,0.11722159489730521
22.593333,0.14065981017487106
22.6,0.15628528702658162
22.606667,0.17972350230414746
22.613333,0.2031617175817133
22.62,0.21878719443342387
22.626667,0.21878719443342387
22.633333,0.2109744560075686
22.64,0.19534897915585803
22.646667,0.17972350230414746
22.653333,0.15628528702658162
22.66,0.13284707174901578
22.666667,0.10159611804559465
22.673333,0.07815790276802881
22.68,0.06253242591631825
22.686667,0.054719687490462965
22.693333,0.054719687490462965
22.7,0.046906949064607684
22.706667,0.0390942106387524
22.713333,0.03128147221289712
22.72,0.03128147221289712
22.726667,0.0390942106387524
22.733333,0.046906949064607684
22.74,0.046906949064607684
22.746667,0.054719687490462965
22.753333,0.054719687490462965
22.76,0.046906949064607684
22.766667,0.0390942106387524
22.773333,0.03128147221289712
22.78,3.051850947599719e-05
22.786667,-0.04684591204565569
22.793333,-0.09375286111026337
22.8,-0.14062929166539506
22.806667,-0.1718802453688162
22.813333,-0.19531846064638203
22.82,-0.2109439374980926
22.826667,-0.21875667592394787
22.833333,-0.2031311990722373
22.84,0.31250953703421125
22.846667,-0.9609363078707236
22.853333,-0.554673909726249
22.86,-0.554673909726249
22.866667,0.9219336527603992
22.873333,-0.18747520371105075
22.88,-0.7734611041596728
22.886667,-0.7734611041596728
22.893333,-0.6875209814752647
22.9,-0.5390789513840144
22.906667,-0.42970061342204047
22.913333,-0.42970061342204047
22.92,-0.42970061342204047
22.926667,-0.4062623981444746
22.933333,-0.39844965971861934
22.94,-0.3828241828669088
22.946667,-0.3359477523117771
22.953333,-0.2109439374980926
22.96,-0.10937833796197394
22.966667,-0.07812738425855281
22.973333,-0.07812738425855281
22.98,-0.07812738425855281
22.986667,-0.07812738425855281
22.993333,-0.06250190740684225
23.0,-0.039063692129276406
23.006667,-0.023438215277565844
23.013333,-0.015625476851710562
23.02,-0.007812738425855281
23.026667,0.0
23.033333,0.01565599536118656
23.04,0.02346873378704184
23.046667,0.03128147221289712
23.053333,0.046906949064607684
23.06,0.07034516434217353
23.066667,0.09378337961973937
23.073333,0.1250343333231605
23.08,0.14065981017487106
23.086667,0.14847254860072634
23.093333,0.14847254860072634
23.1,0.1250343333231605
23.106667,0.09378337961973937
23.113333,0.054719687490462965
23.12,0.01565599536118656
23.126667,-0.023407696768089847
23.133333,-0.04687643055513169
23.14,-0.05468916898098697
23.146667,-0.04687643055513169
23.153333,-0.031250953703421125
23.16,-0.007812738425855281
23.166667,0.0
23.173333,0.00784325693533128
23.18,0.01565599536118656
23.186667,0.0390942106387524
23.193333,0.054719687490462965
23.2,0.06253242591631825
23.206667,0.07034516434217353
23.213333,0.06253242591631825
23.22,0.06253242591631825
23.226667,0.07034516434217353
23.233333,0.07034516434217353
23.24,0.054719687490462965
23.246667,0.02346873378704184
23.253333,-0.015594958342234566
23.26,-0.039063692129276406
23.266667,-0.05468916898098697
23.273333,-0.07812738425855281
23.28,-0.09375286111026337
23.286667,-0.11719107638782922
23.293333,-0.09375286111026337
23.3,0.8594012268440809
23.306667,-0.6249885555589465
23.313333,-0.6249885555589465
23.32,-0.7031159398174993
23.326667,0.5937986388744774
23.333333,-0.3437299722281564
23.34,-0.6640827661976989
23.346667,-0.6640827661976989
23.353333,-0.5078279976805933
23.36,-0.3281350138859218
23.366667,-0.3281350138859218
23.373333,-0.3281350138859218
23.38,-0.31250953703421125
23.386667,-0.2031311990722373
23.393333,-0.09375286111026337
23.4,-0.09375286111026337
23.406667,-0.1250038148136845
23.413333,-0.15625476851710562
23.42,-0.15625476851710562
23.426667,-0.10937833796197394
23.433333,-0.039063692129276406
23.44,-0.023438215277565844
23.446667,-0.023438215277565844
23.453333,-0.015625476851710562
23.46,-0.015625476851710562
23.466667,-0.007812738425855281
23.473333,0.007812738425855281
23.48,0.03128147221289712
23.486667,0.06253242591631825
23.493333,0.09378337961973937
23.5,0.11722159489730521
23.506667,0.14065981017487106
23.513333,0.15628528702658162
23.52,0.1640980254524369
23.526667,0.15628528702658162
23.533333,0.14065981017487106
23.54,0.1250343333231605
23.546667,0.10159611804559465
23.553333,0.08597064119388409
23.56,0.06253242591631825
23.566667,0.046906949064607684
23.573333,0.02346873378704184
23.58,0.01565599536118656
23.586667,3.051850947599719e-05
23.593333,-0.007782219916379284
23.6,-0.023438215277565844
23.606667,-0.031250953703421125
23.613333,-0.031250953703421125
23.62,-0.023438215277565844
23.626667,-0.015625476851710562
23.633333,-0.007812738425855281
23.64,0.0
23.646667,0.00784325693533128
23.653333,0.02346873378704184
23.66,0.0390942106387524
23.666667,0.06253242591631825
23.673333,0.07815790276802881
23.68,0.09378337961973937
23.686667,0.08597064119388409
23.693333,0.08597064119388409
23.7,0.07034516434217353
23.706667,0.054719687490462965
23.713333,0.02346873378704184
23.72,-0.007782219916379284
23.726667,-0.031250953703421125
23.733333,-0.05468916898098697
23.74,-0.05468916898098697
23.746667,-0.023438215277565844
23.753333,0.7734611041596728
23.76,-0.695303201391644
23.766667,-0.5077974791711173
23.773333,-0.5077974791711173
23.78,0.9297463911862545
23.786667,-0.11716055787835322
23.793333,-0.6093935972167119
23.8,-0.6093935972167119
23.806667,-0.5390789513840144
23.813333,-0.39844965971861934
23.82,-0.32032227546006653
23.826667,-0.2890713217566454
23.833333,-0.21875667592394787
23.84,-0.1718802453688162
23.846667,-0.14062929166539506
23.853333,-0.14062929166539506
23.86,-0.14062929166539506
23.866667,-0.1250038148136845
23.873333,-0.09375286111026337
23.88,-0.05468916898098697
23.886667,-0.023438215277565844
23.893333,0.007812738425855281
23.9,0.054719687490462965
23.906667,0.09378337961973937
23.913333,0.11722159489730521
23.92,0.1250343333231605
23.926667,0.1250343333231605
23.933333,0.13284707174901578
23.94,0.15628528702658162
23.946667,0.17972350230414746
23.953333,0.19534897915585803
23.96,0.2109744560075686
23.966667,0.21878719443342387
23.973333,0.21878719443342387
23.98,0.2109744560075686
23.986667,0.2031617175817133
23.993333,0.18753624073000275
24.0,0.17191076387829218
24.006667,0.14065981017487106
24.013333,0.11722159489730521
24.02,0.08597064119388409
24.026667,0.07815790276802881
24.033333,0.07815790276802881
24.04,0.07815790276802881
24.046667,0.07815790276802881
24.053333,0.07034516434217353
24.06,0.06253242591631825
24.066667,0.06253242591631825
24.073333,0.06253242591631825
24.08,0.054719687490462965
24.086667,0.046906949064607684
24.093333,0.0390942106387524
24.1,0.046906949064607684
24.106667,0.06253242591631825
24.113333,0.08597064119388409
24.12,0.09378337961973937
24.126667,0.10159611804559465
24.133333,0.09378337961973937
24.14,0.07815790276802881
24.146667,0.054719687490462965
24.153333,0.02346873378704184
24.16,-0.007782219916379284
24.166667,-0.04687643055513169
24.173333,-0.07812738425855281
24.18,-0.10937833796197394
24.186667,-0.13281655323953978
24.193333,-0.14844203009125034
24.2,-0.1250038148136845
24.206667,0.6406445509201331
24.213333,-0.7812433240760521
24.22,-0.5859248634296701
24.226667,-0.5859248634296701
24.233333,0.8750572222052675
24.24,-0.10934781945249794
24.246667,-0.5703299050874355
24.253333,-0.5703299050874355
24.26,-0.48438978240302744
24.266667,-0.39844965971861934
24.273333,-0.39063692129276406
24.28,-0.3828241828669088
24.286667,-0.3828241828669088
24.293333,-0.2890713217566454
24.3,-0.11719107638782922
24.306667,0.023438215277565844
24.313333,0.07815790276802881
24.32,0.07815790276802881
24.326667,0.03128147221289712
24.333333,-0.015594958342234566
24.34,-0.015625476851710562
24.346667,0.007812738425855281
24.353333,0.02346873378704184
24.36,0.0390942106387524
24.366667,0.0390942106387524
24.373333,0.046906949064607684
24.38,0.046906949064607684
24.386667,0.06253242591631825
24.393333,0.09378337961973937
24.4,0.13284707174901578
24.406667,0.17191076387829218
24.413333,0.2031617175817133
24.42,0.24222540971098971
24.426667,0.26566362498855556
24.433333,0.27347636341441084
24.44,0.2578508865627003
24.446667,0.22659993285927915
24.453333,0.18753624073000275
24.46,0.15628528702658162
24.466667,0.13284707174901578
24.473333,0.10940885647144993
24.48,0.09378337961973937
24.486667,0.08597064119388409
24.493333,0.08597064119388409
24.5,0.08597064119388409
24.506667,0.07815790276802881
24.513333,0.06253242591631825
24.52,0.046906949064607684
24.526667,0.02346873378704184
24.533333,0.00784325693533128
24.54,3.051850947599719e-05
24.546667,3.051850947599719e-05
24.553333,0.02346873378704184
24.56,0.046906949064607684
24.566667,0.07815790276802881
24.573333,0.09378337961973937
24.58,0.08597064119388409
24.586667,0.07034516434217353
24.593333,0.054719687490462965
24.6,0.0390942106387524
24.606667,0.02346873378704184
24.613333,-0.007782219916379284
24.62,-0.039063692129276406
24.626667,-0.06250190740684225
24.633333,-0.07031464583269753
24.64,-0.06250190740684225
24.646667,-0.06250190740684225
24.653333,-0.04687643055513169
24.66,0.6718955046235542
24.666667,-0.804681539353618
24.673333,-0.695303201391644
24.68,-0.695303201391644
24.686667,0.6875514999847407
24.693333,-0.30466628009887997
24.7,-0.6797082430494095
24.706667,-0.6797082430494095
24.713333,-0.5156407361064486
24.72,-0.3281350138859218
24.726667,-0.2890713217566454
24.733333,-0.24219489120151372
24.74,-0.19531846064638203
24.746667,-0.18750572222052675
24.753333,-0.18750572222052675
24.76,-0.2109439374980926
24.766667,-0.24219489120151372
24.773333,-0.24219489120151372
24.78,-0.24219489120151372
24.786667,-0.19531846064638203
24.793333,-0.07812738425855281
24.8,-0.031250953703421125
24.806667,-0.007812738425855281
24.813333,0.007812738425855281
24.82,0.02346873378704184
24.826667,0.0390942106387524
24.833333,0.046906949064607684
24.84,0.046906949064607684
24.846667,0.06253242591631825
24.853333,0.07034516434217353
24.86,0.07034516434217353
24.866667,0.07815790276802881
24.873333,0.10159611804559465
24.88,0.1250343333231605
24.886667,0.14847254860072634
24.893333,0.1640980254524369
24.9,0.17191076387829218
24.906667,0.17191076387829218
24.913333,0.1640980254524369
24.92,0.14065981017487106
24.926667,0.10159611804559465
24.933333,0.06253242591631825
24.94,0.03128147221289712
24.946667,0.01565599536118656
24.953333,0.01565599536118656
24.96,0.01565599536118656
24.966667,0.03128147221289712
24.973333,0.046906949064607684
24.98,0.07034516434217353
24.986667,0.07815790276802881
24.993333,0.08597064119388409
25.0,0.09378337961973937
25.006667,0.10159611804559465
25.013333,0.11722159489730521
25.02,0.13284707174901578
25.026667,0.14065981017487106
25.033333,0.14847254860072634
25.04,0.1640980254524369
25.046667,0.17191076387829218
25.053333,0.17191076387829218
25.06,0.14847254860072634
25.066667,0.10940885647144993
25.073333,0.07034516434217353
25.08,0.0390942106387524
25.086667,0.00784325693533128
25.093333,-0.06247138889736625
25.1,-0.06250190740684225
25.106667,0.031250953703421125
25.113333,0.5391094698934904
25.12,-0.5468611713003937
25.126667,-0.06247138889736625
25.133333,-0.06247138889736625
25.14,-0.6484267708365123
25.146667,0.19534897915585803
25.153333,-0.42967009491256447
25.16,-0.48438978240302744
25.166667,-0.48438978240302744
25.173333,-0.3828241828669088
25.18,-0.2812585833307901
25.186667,-0.26563310647907956
25.193333,-0.21875667592394787
25.2,-0.1718802453688162
25.206667,-0.1640675069429609
25.213333,-0.1640675069429609
25.22,-0.1640675069429609
25.226667,-0.1250038148136845
25.233333,-0.06250190740684225
25.24,-0.015625476851710562
25.246667,0.015625476851710562
25.253333,0.01565599536118656
25.26,0.01565599536118656
25.266667,0.00784325693533128
25.273333,0.00784325693533128
25.28,0.02346873378704184
25.286667,0.03128147221289712
25.293333,0.03128147221289712
25.3,0.02346873378704184
25.306667,0.0390942106387524
25.313333,0.07034516434217353
25.32,0.10940885647144993
25.326667,0.14847254860072634
25.333333,0.17972350230414746
25.34,0.19534897915585803
25.346667,0.19534897915585803
25.353333,0.19534897915585803
25.36,0.17972350230414746
25.366667,0.14847254860072634
25.373333,0.10159611804559465
25.38,0.06253242591631825
25.386667,0.02346873378704184
25.393333,3.051850947599719e-05
25.4,-0.007782219916379284
25.406667,-0.015625476851710562
25.413333,-0.015625476851710562
25.42,-0.015625476851710562
25.426667,-0.007812738425855281
25.433333,-0.007812738425855281
25.44,-0.023438215277565844
25.446667,-0.039063692129276406
25.453333,-0.07031464583269753
25.46,-0.0859401226844081
25.466667,-0.09375286111026337
25.473333,-0.0859401226844081
25.48,-0.07812738425855281
25.486667,-0.05468916898098697
25.493333,-0.031250953703421125
25.5,0.007812738425855281
25.506667,0.02346873378704184
25.513333,0.00784325693533128
25.52,-0.015594958342234566
25.526667,-0.05468916898098697
25.533333,-0.07812738425855281
25.54,-0.10156559953611866
25.546667,-0.1250038148136845
25.553333,-0.14844203009125034
25.56,-0.1640675069429609
25.566667,-0.18750572222052675
25.573333,0.023438215277565844
25.58,0.6172368541520432
25.586667,-0.6718649861140782
25.593333,-0.35154271065401166
25.6,-0.35154271065401166
25.606667,-0.9062471388897366
25.613333,3.051850947599719e-05
25.62,-0.554673909726249
25.626667,-0.554704428235725
25.633333,-0.5312662129581591
25.64,-0.4531388286996063
25.646667,-0.3359477523117771
25.653333,-0.3359477523117771
25.66,-0.3359477523117771
25.666667,-0.24219489120151372
25.673333,-0.10156559953611866
25.68,0.0
25.686667,3.051850947599719e-05
25.693333,-0.06247138889736625
25.7,-0.13281655323953978
25.706667,-0.13281655323953978
25.713333,-0.10937833796197394
25.72,-0.0859401226844081
25.726667,-0.07031464583269753
25.733333,-0.06250190740684225
25.74,-0.05468916898098697
25.746667,-0.04687643055513169
25.753333,-0.031250953703421125
25.76,0.0
25.766667,0.03128147221289712
25.773333,0.046906949064607684
25.78,0.06253242591631825
25.786667,0.08597064119388409
25.793333,0.10159611804559465
25.8,0.1250343333231605
25.806667,0.13284707174901578
25.813333,0.13284707174901578
25.82,0.1250343333231605
25.826667,0.10940885647144993
25.833333,0.10159611804559465
25.84,0.09378337961973937
25.846667,0.07034516434217353
25.853333,0.046906949064607684
25.86,0.02346873378704184
25.866667,3.051850947599719e-05
25.873333,-0.023407696768089847
25.88,-0.039063692129276406
25.886667,-0.05468916898098697
25.893333,-0.07031464583269753
25.9,-0.07031464583269753
25.906667,-0.06250190740684225
25.913333,-0.05468916898098697
25.92,-0.04687643055513169
25.926667,-0.031250953703421125
25.933333,-0.015625476851710562
25.94,0.007812738425855281
25.946667,0.03128147221289712
25.953333,0.046906949064607684
25.96,0.06253242591631825
25.966667,0.06253242591631825
25.973333,0.054719687490462965
25.98,0.0390942106387524
25.986667,0.01565599536118656
25.993333,-0.023407696768089847
26.0,-0.06250190740684225
26.006667,-0.10156559953611866
26.013333,-0.13281655323953978
26.02,-0.14844203009125034
26.026667,-0.1640675069429609
26.033333,-0.1640675069429609
26.04,-0.14062929166539506
26.046667,0.5625171666615802
26.053333,-0.9140598773155919
26.06,-0.7890560625019074
26.066667,-0.7890560625019074
26.073333,0.5625476851710562
26.08,-0.4921720023194067
26.086667,-0.9062776573992126
26.093333,-0.9062776573992126
26.1,-0.6562700277718436
26.106667,-0.4140751365703299
26.113333,-0.39063692129276406
26.12,-0.39063692129276406
26.126667,-0.39063692129276406
26.133333,-0.3359477523117771
26.14,-0.24219489120151372
26.146667,-0.1640675069429609
26.153333,-0.1640675069429609
26.16,-0.1718802453688162
26.166667,-0.18750572222052675
26.173333,-0.18750572222052675
26.18,-0.13281655323953978
26.186667,-0.10156559953611866
26.193333,-0.07812738425855281
26.2,-0.05468916898098697
26.206667,-0.015625476851710562
26.213333,0.007812738425855281
26.22,0.03128147221289712
26.226667,0.046906949064607684
26.233333,0.07815790276802881
26.24,0.10940885647144993
26.246667,0.13284707174901578
26.253333,0.14847254860072634
26.26,0.15628528702658162
26.266667,0.15628528702658162
26.273333,0.1640980254524369
26.28,0.17972350230414746
26.286667,0.19534897915585803
26.293333,0.2031617175817133
26.3,0.18753624073000275
26.306667,0.1640980254524369
26.313333,0.14065981017487106
26.32,0.10940885647144993
26.326667,0.07034516434217353
26.333333,0.03128147221289712
26.34,-0.015594958342234566
26.346667,-0.039063692129276406
26.353333,-0.04687643055513169
26.36,-0.04687643055513169
26.366667,-0.039063692129276406
26.373333,-0.031250953703421125
26.38,-0.007812738425855281
26.386667,0.007812738425855281
26.393333,0.02346873378704184
26.4,0.0390942106387524
26.406667,0.054719687490462965
26.413333,0.07034516434217353
26.42,0.08597064119388409
26.426667,0.09378337961973937
26.433333,0.07815790276802881
26.44,0.046906949064607684
26.446667,0.01565599536118656
26.453333,-0.007782219916379284
26.46,-0.039063692129276406
26.466667,-0.07031464583269753
26.473333,-0.10156559953611866
26.48,-0.1250038148136845
26.486667,-0.1250038148136845
26.493333,-0.10156559953611866
26.5,-0.07812738425855281
26.506667,-0.031250953703421125
26.513333,0.07812738425855281
26.52,-0.8281197546311838
26.526667,-0.7890560625019074
26.533333,-0.7890560625019074
26.54,0.6406750694296091
26.546667,-0.2890408032471694
26.553333,-0.6640827661976989
26.56,-0.6640827661976989
26.566667,-0.5078279976805933
26.573333,-0.3437604907376324
26.58,-0.31250953703421125
26.586667,-0.30469679860835597
26.593333,-0.30469679860835597
26.6,-0.2578203680532243
26.606667,-0.1640675069429609
26.613333,-0.09375286111026337
26.62,-0.07812738425855281
26.626667,-0.07812738425855281
26.633333,-0.0859401226844081
26.64,-0.0859401226844081
26.646667,-0.039063692129276406
26.653333,0.039063692129276406
26.66,0.054719687490462965
26.666667,0.06253242591631825
26.673333,0.054719687490462965
26.68,0.054719687490462965
26.686667,0.054719687490462965
26.693333,0.054719687490462965
26.7,0.046906949064607684
26.706667,0.046906949064607684
26.713333,0.0390942106387524
26.72,0.03128147221289712
26.726667,0.0390942106387524
26.733333,0.06253242591631825
26.74,0.09378337961973937
26.746667,0.10940885647144993
26.753333,0.10940885647144993
26.76,0.10940885647144993
26.766667,0.10940885647144993
26.773333,0.10940885647144993
26.78,0.09378337961973937
26.786667,0.054719687490462965
26.793333,0.00784325693533128
26.8,-0.023407696768089847
26.806667,-0.039063692129276406
26.813333,-0.04687643055513169
26.82,-0.04687643055513169
26.826667,-0.05468916898098697
26.833333,-0.05468916898098697
26.84,-0.04687643055513169
26.846667,-0.039063692129276406
26.853333,-0.031250953703421125
26.86,-0.007812738425855281
26.866667,0.015625476851710562
26.873333,0.0390942106387524
26.88,0.06253242591631825
26.886667,0.07815790276802881
26.893333,0.09378337961973937
26.9,0.10159611804559465
26.906667,0.11722159489730521
26.913333,0.10940885647144993
26.92,0.08597064119388409
26.926667,0.046906949064607684
26.933333,0.01565599536118656
26.94,-0.007782219916379284
26.946667,-0.023438215277565844
26.953333,-0.039063692129276406
26.96,-0.05468916898098697
26.966667,0.11719107638782922
26.973333,0.6719260231330302
26.98,-0.6406140324106571
26.986667,-0.3671681875057222
26.993333,-0.3671681875057222
27.0,-1.0
27.006667,-0.18747520371105075
27.013333,-0.750022888882107
27.02,-0.750022888882107
27.026667,-0.6015808587908567
27.033333,-0.3437604907376324
27.04,-0.21875667592394787
27.046667,-0.2109439374980926
27.053333,-0.1718802453688162
27.06,-0.10937833796197394
27.066667,-0.07812738425855281
27.073333,-0.07812738425855281
27.08,-0.0859401226844081
27.086667,-0.0859401226844081
27.093333,-0.06250190740684225
27.1,-0.04687643055513169
27.106667,-0.04687643055513169
27.113333,-0.039063692129276406
27.12,-0.039063692129276406
27.126667,-0.023438215277565844
27.133333,0.0
27.14,0.03128147221289712
27.146667,0.06253242591631825
27.153333,0.10159611804559465
27.16,0.13284707174901578
27.166667,0.1640980254524369
27.173333,0.2031617175817133
27.18,0.21878719443342387
27.186667,0.21878719443342387
27.193333,0.2109744560075686
27.2,0.2031617175817133
27.206667,0.19534897915585803
27.213333,0.18753624073000275
27.22,0.1640980254524369
27.226667,0.11722159489730521
27.233333,0.07815790276802881
27.24,0.054719687490462965
27.246667,0.0390942106387524
27.253333,0.0390942106387524
27.26,0.03128147221289712
27.266667,0.00784325693533128
27.273333,-0.015594958342234566
27.28,-0.015625476851710562
27.286667,-0.015625476851710562
27.293333,-0.007812738425855281
27.3,-0.007812738425855281
27.306667,-0.015625476851710562
27.313333,-0.023438215277565844
27.32,-0.015625476851710562
27.326667,0.015625476851710562
27.333333,0.046906949064607684
27.34,0.08597064119388409
27.346667,0.09378337961973937
27.353333,0.07815790276802881
27.36,0.046906949064607684
27.366667,0.01565599536118656
27.373333,-0.007782219916379284
27.38,-0.023438215277565844
27.386667,-0.031250953703421125
27.393333,-0.04687643055513169
27.4,-0.06250190740684225
27.406667,-0.0859401226844081
27.413333,-0.44532609027375103
27.42,-0.44532609027375103
27.426667,-0.10156559953611866
27.433333,0.7031464583269753
27.44,-0.695303201391644
27.446667,-0.554673909726249
27.453333,-0.554673909726249
27.46,0.9219336527603992
27.466667,-0.07809686574907682
27.473333,-0.5937681203650014
27.48,-0.6328318124942778
27.486667,-0.6328318124942778
27.493333,-0.5859553819391461
27.5,-0.4922025208288827
27.506667,-0.48438978240302744
27.513333,-0.4062623981444746
27.52,-0.2109439374980926
27.526667,-0.039063692129276406
27.533333,-0.039063692129276406
27.54,-0.07812738425855281
27.546667,-0.11719107638782922
27.553333,-0.1250038148136845
27.56,-0.13281655323953978
27.566667,-0.1250038148136845
27.573333,-0.11719107638782922
27.58,-0.11719107638782922
27.586667,-0.10937833796197394
27.593333,-0.09375286111026337
27.6,-0.06250190740684225
27.606667,-0.023438215277565844
27.613333,0.015625476851710562
27.62,0.054719687490462965
27.626667,0.07815790276802881
27.633333,0.09378337961973937
27.64,0.10940885647144993
27.646667,0.1250343333231605
27.653333,0.14065981017487106
27.66,0.14065981017487106
27.666667,0.14847254860072634
27.673333,0.14847254860072634
27.68,0.14065981017487106
27.686667,0.13284707174901578
27.693333,0.10940885647144993
27.7,0.07034516434217353
27.706667,0.02346873378704184
27.713333,-0.015594958342234566
27.72,-0.039063692129276406
27.726667,-0.06250190740684225
27.733333,-0.07812738425855281
27.74,-0.0859401226844081
27.746667,-0.0859401226844081
27.753333,-0.07812738425855281
27.76,-0.07031464583269753
27.766667,-0.05468916898098697
27.773333,-0.039063692129276406
27.78,-0.023438215277565844
27.786667,-0.015625476851710562
27.793333,0.007812738425855281
27.8,0.03128147221289712
27.806667,0.054719687490462965
27.813333,0.07034516434217353
27.82,0.07034516434217353
27.826667,0.0390942106387524
27.833333,0.00784325693533128
27.84,-0.03122043519394513
27.846667,-0.07031464583269753
27.853333,-0.10937833796197394
27.86,-0.13281655323953978
27.866667,-0.14844203009125034
27.873333,-0.14844203009125034
27.88,-0.11719107638782922
27.886667,-0.04687643055513169
27.893333,0.9765923032319102
27.9,-0.6484267708365123
27.906667,-0.6484267708365123
27.913333,0.9844355601672414
27.92,0.054719687490462965
27.926667,-0.5312356944486831
27.933333,-0.5625171666615802
27.94,-0.5625171666615802
27.946667,-0.35938596758934294
27.953333,-0.15625476851710562
27.96,-0.15625476851710562
27.966667,-0.17969298379467147
27.973333,-0.250007629627369
27.98,-0.2968840601825007
27.986667,-0.2968840601825007
27.993333,-0.250007629627369
28.0,-0.14062929166539506
28.006667,-0.04687643055513169
28.013333,-0.007812738425855281
28.02,-0.007812738425855281
28.026667,-0.007812738425855281
28.033333,-0.007812738425855281
28.04,0.0
28.046667,0.00784325693533128
28.053333,0.02346873378704184
28.06,0.0390942106387524
28.066667,0.054719687490462965
28.073333,0.07034516434217353
28.08,0.08597064119388409
