t_sec,ecg
0.0,0.05502583661417323
0.006667,0.5115649606299213
0.013333,0.008704478346456693
0.02,0.10999015748031496
0.026667,0.008027805118110236
0.033333,0.007627952755905512
0.04,0.007627952755905512
0.046667,0.3068405511811024
0.053333,0.08646038385826772
0.06,0.008427657480314961
0.066667,0.32258858267716534
0.073333,0.5126414862204725
0.08,0.49606299212598426
0.086667,0.47244094488188976
0.093333,0.4251968503937008
0.1,0.36220472440944884
0.106667,0.29133858267716534
0.113333,0.2283464566929134
0.12,0.15748031496062992
0.126667,0.08661417322834646
0.133333,0.03937007874015748
0.14,0.0
0.146667,-0.01577878937007874
0.153333,-0.023652805118110236
0.16,-0.01577878937007874
0.166667,-3.075787401574803e-05
0.173333,0.007843257874015748
0.18,0.015748031496062992
0.186667,0.015748031496062992
0.193333,0.015748031496062992
0.2,0.007874015748031496
0.206667,0.007874015748031496
0.213333,0.007874015748031496
0.22,0.007874015748031496
0.226667,0.0
0.233333,-0.007904773622047244
0.24,-0.023652805118110236
0.246667,-0.03152682086614173
0.253333,-0.023652805118110236
0.26,-0.007904773622047244
0.266667,0.007843257874015748
0.273333,0.023622047244094488
0.28,0.03937007874015748
0.286667,0.05511811023622047
0.293333,0.06299212598425197
0.3,0.07086614173228346
0.306667,0.05511811023622047
0.313333,0.03937007874015748
0.32,0.023622047244094488
0.326667,0.007874015748031496
0.333333,-0.007874015748031496
0.34,-0.023652805118110236
0.346667,-0.03152682086614173
0.353333,-0.03940083661417323
0.36,-0.047274852362204724
0.366667,-0.047274852362204724
0.373333,-0.047274852362204724
0.38,-0.03940083661417323
0.386667,-0.023652805118110236
0.393333,-0.007904773622047244
0.4,0.015717273622047244
0.406667,0.015748031496062992
0.413333,0.015748031496062992
0.42,0.007874015748031496
0.426667,0.007874015748031496
0.433333,0.007874015748031496
0.44,0.007874015748031496
0.446667,0.007874015748031496
0.453333,0.007874015748031496
0.46,0.015748031496062992
0.466667,0.015748031496062992
0.473333,0.023622047244094488
0.48,0.015748031496062992
0.486667,0.007874015748031496
0.493333,-0.007874015748031496
0.5,-0.01577878937007874
0.506667,-0.023652805118110236
0.513333,-0.023652805118110236
0.52,-0.03152682086614173
0.526667,-0.0945189468503937
0.533333,-0.0945189468503937
0.54,-0.08664493110236221
0.546667,0.27555979330708663
0.553333,0.8661417322834646
0.56,-0.9133858267716536
0.566667,-0.9133858267716536
0.573333,0.6850393700787402
0.58,-0.11023622047244094
0.586667,-0.5354638287401575
0.593333,-0.590581938976378
0.6,-0.590581938976378
0.606667,-0.49609375
0.613333,-0.37010949803149606
0.62,-0.3071173720472441
0.626667,-0.24412524606299213
0.633333,-0.17325910433070865
0.64,-0.1338890255905512
0.646667,-0.12601500984251968
0.653333,-0.1181409940944882
0.66,-0.1023929625984252
0.666667,-0.0945189468503937
0.673333,-0.07089689960629922
0.68,-0.047274852362204724
0.686667,-3.075787401574803e-05
0.693333,0.03933932086614173
0.7,0.07086614173228346
0.706667,0.07874015748031496
0.713333,0.11023622047244094
0.72,0.12598425196850394
0.726667,0.14960629921259844
0.733333,0.1732283464566929
0.74,0.18110236220472442
0.746667,0.18110236220472442
0.753333,0.1732283464566929
0.76,0.18110236220472442
0.766667,0.2125984251968504
0.773333,0.25196850393700787
0.78,0.29133858267716534
0.786667,0.3228346456692913
0.793333,0.33070866141732286
0.8,0.33070866141732286
0.806667,0.3228346456692913
0.813333,0.30708661417322836
0.82,0.28346456692913385
0.826667,0.23622047244094488
0.833333,0.18110236220472442
0.84,0.12598425196850394
0.846667,0.08661417322834646
0.853333,0.07086614173228346
0.86,0.047244094488188976
0.866667,0.023622047244094488
0.873333,-0.007874015748031496
0.88,-0.03152682086614173
0.886667,-0.03940083661417323
0.893333,-0.047274852362204724
0.9,-0.047274852362204724
0.906667,-0.047274852362204724
0.913333,-0.03940083661417323
0.92,-0.023652805118110236
0.926667,-0.01577878937007874
0.933333,-0.01577878937007874
0.94,-0.01577878937007874
0.946667,-0.023652805118110236
0.953333,-0.03152682086614173
0.96,-0.023652805118110236
0.966667,-0.01577878937007874
0.973333,-0.007904773622047244
0.98,-3.075787401574803e-05
0.986667,0.007843257874015748
0.993333,0.023622047244094488
1.0,0.031496062992125984
1.006667,0.031496062992125984
1.013333,0.023622047244094488
1.02,0.0
1.026667,-0.01577878937007874
1.033333,-0.023652805118110236
1.04,-0.01577878937007874
1.046667,-0.007904773622047244
1.053333,-0.007904773622047244
1.06,-0.01577878937007874
1.066667,-0.023652805118110236
1.073333,-0.023652805118110236
1.08,-0.03152682086614173
1.086667,-0.03940083661417323
1.093333,-0.05514886811023622
1.1,-0.07089689960629922
1.106667,-0.07877091535433071
1.113333,-0.07089689960629922
1.12,-0.03940083661417323
1.126667,-0.007904773622047244
1.133333,0.02359128937007874
1.14,0.031496062992125984
1.146667,0.03937007874015748
1.153333,0.047244094488188976
1.16,0.05511811023622047
1.166667,0.047244094488188976
1.173333,0.031496062992125984
1.18,0.023622047244094488
1.186667,0.015748031496062992
1.193333,0.015748031496062992
1.2,0.023622047244094488
1.206667,0.03937007874015748
1.213333,0.05511811023622047
1.22,0.07086614173228346
1.226667,0.06299212598425197
1.233333,0.047244094488188976
1.24,0.015748031496062992
1.246667,-0.015748031496062992
1.253333,-0.03940083661417323
1.26,-0.07089689960629922
1.266667,-0.1102669783464567
1.273333,-0.18900713582677164
1.28,-0.20475516732283464
1.286667,-0.20475516732283464
1.293333,-0.0945189468503937
1.3,0.2834338090551181
1.306667,0.8582677165354331
1.313333,-0.8582677165354331
1.32,-0.8582677165354331
1.326667,0.7795275590551181
1.333333,-0.007874015748031496
1.34,-0.559085875984252
1.346667,-0.7086921751968503
1.353333,-0.7086921751968503
1.36,-0.5669598917322834
1.366667,-0.35436146653543305
1.373333,-0.22050319881889763
1.38,-0.1338890255905512
1.386667,-0.07089689960629922
1.393333,-0.05514886811023622
1.4,-0.047274852362204724
1.406667,-0.03152682086614173
1.413333,-0.01577878937007874
1.42,-3.075787401574803e-05
1.426667,0.007843257874015748
1.433333,0.007874015748031496
1.44,0.0
1.446667,-0.007904773622047244
1.453333,-0.007904773622047244
1.46,-3.075787401574803e-05
1.466667,0.015717273622047244
1.473333,0.03937007874015748
1.48,0.06299212598425197
1.486667,0.09448818897637795
1.493333,0.11811023622047244
1.5,0.15748031496062992
1.506667,0.2047244094488189
1.513333,0.2440944881889764
1.52,0.2755905511811024
1.526667,0.2992125984251969
1.533333,0.33070866141732286
1.54,0.3779527559055118
1.546667,0.41732283464566927
1.553333,0.4409448818897638
1.56,0.4330708661417323
1.566667,0.4094488188976378
1.573333,0.3700787401574803
1.58,0.33070866141732286
1.586667,0.2677165354330709
1.593333,0.2047244094488189
1.6,0.14960629921259844
1.606667,0.09448818897637795
1.613333,0.07086614173228346
1.62,0.05511811023622047
1.626667,0.047244094488188976
1.633333,0.03937007874015748
1.64,0.031496062992125984
1.646667,0.015748031496062992
1.653333,-0.007874015748031496
1.66,-0.03152682086614173
1.666667,-0.05514886811023622
1.673333,-0.07089689960629922
1.68,-0.08664493110236221
1.686667,-0.0945189468503937
1.693333,-0.0945189468503937
1.7,-0.0945189468503937
1.706667,-0.07877091535433071
1.713333,-0.05514886811023622
1.72,-0.023652805118110236
1.726667,-3.075787401574803e-05
1.733333,0.015717273622047244
1.74,0.03937007874015748
1.746667,0.06299212598425197
1.753333,0.07086614173228346
1.76,0.07086614173228346
1.766667,0.06299212598425197
1.773333,0.047244094488188976
1.78,0.031496062992125984
1.786667,0.023622047244094488
1.793333,0.007874015748031496
1.8,0.0
1.806667,-3.075787401574803e-05
1.813333,0.007843257874015748
1.82,0.023622047244094488
1.826667,0.031496062992125984
1.833333,0.03937007874015748
1.84,0.03937007874015748
1.846667,0.031496062992125984
1.853333,0.023622047244094488
1.86,0.007874015748031496
1.866667,-0.015748031496062992
1.873333,-0.03940083661417323
1.88,-0.07089689960629922
1.886667,-0.1023929625984252
1.893333,-0.1338890255905512
1.9,-0.14963705708661418
1.906667,-0.15751107283464566
1.913333,-0.15751107283464566
1.92,-0.15751107283464566
1.926667,-0.15751107283464566
1.933333,-0.14176304133858267
1.94,-0.1102669783464567
1.946667,-0.07089689960629922
1.953333,-0.03940083661417323
1.96,-0.023652805118110236
1.966667,-0.023652805118110236
1.973333,-0.01577878937007874
1.98,-0.007904773622047244
1.986667,-3.075787401574803e-05
1.993333,-3.075787401574803e-05
2.0,-3.075787401574803e-05
2.006667,-0.007904773622047244
2.013333,-0.007904773622047244
2.02,-0.007904773622047244
2.026667,-3.075787401574803e-05
2.033333,-3.075787401574803e-05
2.04,-0.023652805118110236
2.046667,-0.05514886811023622
2.053333,-0.08664493110236221
2.06,-0.1102669783464567
2.066667,-0.19688115157480315
2.073333,-0.19688115157480315
2.08,-0.19688115157480315
2.086667,-0.07089689960629922
2.093333,0.3070558562992126
2.1,0.9291338582677166
2.106667,-0.7716535433070866
2.113333,-0.7716535433070866
2.12,0.84251968503937
2.126667,0.03937007874015748
2.133333,-0.4330708661417323
2.14,-0.5197157972440944
2.146667,-0.5197157972440944
2.153333,-0.43310162401574803
2.16,-0.32286540354330706
2.166667,-0.26774729330708663
2.173333,-0.21262918307086615
2.18,-0.14963705708661418
2.186667,-0.1023929625984252
2.193333,-0.07877091535433071
2.2,-0.03940083661417323
2.206667,-0.03152682086614173
2.213333,-0.023652805118110236
2.22,-0.023652805118110236
2.226667,-0.03152682086614173
2.233333,-0.03152682086614173
2.24,-0.023652805118110236
2.246667,-0.01577878937007874
2.253333,-3.075787401574803e-05
2.26,0.007843257874015748
2.266667,0.023622047244094488
2.273333,0.047244094488188976
2.28,0.07874015748031496
2.286667,0.13385826771653545
2.293333,0.1889763779527559
2.3,0.23622047244094488
2.306667,0.28346456692913385
2.313333,0.3228346456692913
2.32,0.36220472440944884
2.326667,0.3937007874015748
2.333333,0.4015748031496063
2.34,0.3858267716535433
2.346667,0.36220472440944884
2.353333,0.33858267716535434
2.36,0.33070866141732286
2.366667,0.3228346456692913
2.373333,0.30708661417322836
2.38,0.2755905511811024
2.386667,0.2440944881889764
2.393333,0.2047244094488189
2.4,0.14960629921259844
2.406667,0.09448818897637795
2.413333,0.031496062992125984
2.42,-0.031496062992125984
2.426667,-0.08664493110236221
2.433333,-0.12601500984251968
2.44,-0.15751107283464566
2.446667,-0.17325910433070865
2.453333,-0.18113312007874016
2.46,-0.18113312007874016
2.466667,-0.17325910433070865
2.473333,-0.16538508858267717
2.48,-0.16538508858267717
2.486667,-0.14963705708661418
2.493333,-0.14176304133858267
2.5,-0.1181409940944882
2.506667,-0.1023929625984252
2.513333,-0.08664493110236221
2.52,-0.07089689960629922
2.526667,-0.06302288385826772
2.533333,-0.05514886811023622
2.54,-0.047274852362204724
2.546667,-0.047274852362204724
2.553333,-0.047274852362204724
2.56,-0.047274852362204724
2.566667,-0.05514886811023622
2.573333,-0.06302288385826772
2.58,-0.06302288385826772
2.586667,-0.047274852362204724
2.593333,-0.03940083661417323
2.6,-0.03152682086614173
2.606667,-0.03152682086614173
2.613333,-0.03152682086614173
2.62,-0.023652805118110236
2.626667,-0.007904773622047244
2.633333,-0.007904773622047244
2.64,-0.01577878937007874
2.646667,-0.01577878937007874
2.653333,-0.01577878937007874
2.66,-0.007904773622047244
2.666667,-3.075787401574803e-05
2.673333,0.007843257874015748
2.68,0.007874015748031496
2.686667,0.015748031496062992
2.693333,0.015748031496062992
2.7,0.015748031496062992
2.706667,0.015748031496062992
2.713333,0.015748031496062992
2.72,0.015748031496062992
2.726667,0.007874015748031496
2.733333,0.007874015748031496
2.74,-0.007874015748031496
2.746667,-0.007904773622047244
2.753333,-0.007904773622047244
2.76,0.015717273622047244
2.766667,0.03937007874015748
2.773333,0.06299212598425197
2.78,0.08661417322834646
2.786667,0.11023622047244094
2.793333,0.13385826771653545
2.8,0.16535433070866143
2.806667,0.18110236220472442
2.813333,0.1732283464566929
2.82,0.14960629921259844
2.826667,0.11811023622047244
2.833333,0.08661417322834646
2.84,0.05511811023622047
2.846667,0.023622047244094488
2.853333,-0.015748031496062992
2.86,-0.03940083661417323
2.866667,-0.05514886811023622
2.873333,-0.05514886811023622
2.88,-0.07089689960629922
2.886667,-0.14963705708661418
2.893333,-0.14963705708661418
2.9,0.18107160433070865
2.906667,0.8582677165354331
2.913333,-0.7952755905511811
2.92,-0.7952755905511811
2.926667,0.8031496062992126
2.933333,-0.023622047244094488
2.94,-0.4724717027559055
2.946667,-0.511841781496063
2.953333,-0.511841781496063
2.96,-0.35436146653543305
2.966667,-0.18113312007874016
2.973333,-0.14176304133858267
2.98,-0.1338890255905512
2.986667,-0.12601500984251968
2.993333,-0.07877091535433071
3.0,0.007843257874015748
3.006667,0.05511811023622047
3.013333,0.06299212598425197
3.02,0.06299212598425197
3.026667,0.05511811023622047
3.033333,0.05511811023622047
3.04,0.05511811023622047
3.046667,0.07086614173228346
3.053333,0.08661417322834646
3.06,0.11023622047244094
3.066667,0.14173228346456693
3.073333,0.16535433070866143
3.08,0.1968503937007874
3.086667,0.2283464566929134
3.093333,0.25984251968503935
3.1,0.28346456692913385
3.106667,0.30708661417322836
3.113333,0.31496062992125984
3.12,0.3228346456692913
3.126667,0.33858267716535434
3.133333,0.3700787401574803
3.14,0.4094488188976378
3.146667,0.4566929133858268
3.153333,0.4881889763779528
3.16,0.5196850393700787
3.166667,0.5354330708661418
3.173333,0.5275590551181102
3.18,0.49606299212598426
3.186667,0.44881889763779526
3.193333,0.3937007874015748
3.2,0.3228346456692913
3.206667,0.2440944881889764
3.213333,0.1732283464566929
3.22,0.11811023622047244
3.226667,0.07874015748031496
3.233333,0.05511811023622047
3.24,0.03937007874015748
3.246667,0.015748031496062992
3.253333,0.0
3.26,-0.01577878937007874
3.266667,-0.03940083661417323
3.273333,-0.06302288385826772
3.28,-0.07089689960629922
3.286667,-0.07877091535433071
3.293333,-0.07089689960629922
3.3,-0.06302288385826772
3.306667,-0.047274852362204724
3.313333,-0.023652805118110236
3.32,0.007843257874015748
3.326667,0.03937007874015748
3.333333,0.05511811023622047
3.34,0.06299212598425197
3.346667,0.047244094488188976
3.353333,0.023622047244094488
3.36,0.007874015748031496
3.366667,-0.015748031496062992
3.373333,-0.03940083661417323
3.38,-0.05514886811023622
3.386667,-0.06302288385826772
3.393333,-0.07089689960629922
3.4,-0.07089689960629922
3.406667,-0.05514886811023622
3.413333,-0.03940083661417323
3.42,-0.01577878937007874
3.426667,-0.007904773622047244
3.433333,-0.007904773622047244
3.44,-0.007904773622047244
3.446667,-0.007904773622047244
3.453333,-0.007904773622047244
3.46,-0.023652805118110236
3.466667,-0.03940083661417323
3.473333,-0.05514886811023622
3.48,-0.047274852362204724
3.486667,-0.03940083661417323
3.493333,-0.03940083661417323
3.5,-0.047274852362204724
3.506667,-0.05514886811023622
3.513333,-0.047274852362204724
3.52,-0.03152682086614173
3.526667,-0.03152682086614173
3.533333,-0.03940083661417323
3.54,-0.05514886811023622
3.546667,-0.05514886811023622
3.553333,-0.047274852362204724
3.56,-0.03152682086614173
3.566667,-0.01577878937007874
3.573333,-0.007904773622047244
3.58,-3.075787401574803e-05
3.586667,0.015717273622047244
3.593333,0.03937007874015748
3.6,0.07086614173228346
3.606667,0.10236220472440945
3.613333,0.11811023622047244
3.62,0.13385826771653545
3.626667,0.14173228346456693
3.633333,0.14173228346456693
3.64,0.12598425196850394
3.646667,0.10236220472440945
3.653333,0.07086614173228346
3.66,0.031496062992125984
3.666667,-0.007874015748031496
3.673333,-0.047274852362204724
3.68,-0.07877091535433071
3.686667,-0.0945189468503937
3.693333,-0.1023929625984252
3.7,-0.1023929625984252
3.706667,0.031465305118110236
3.713333,0.5196850393700787
3.72,0.8818897637795275
3.726667,0.889763779527559
3.733333,0.889763779527559
3.74,0.3937007874015748
3.746667,-0.4645669291338583
3.753333,-0.8346764271653543
3.76,-0.8346764271653543
3.766667,-0.7008181594488189
3.773333,-0.480345718503937
3.78,-0.3149913877952756
3.786667,-0.15751107283464566
3.793333,-0.03152682086614173
3.8,0.031465305118110236
3.806667,0.031496062992125984
3.813333,0.031496062992125984
3.82,0.03937007874015748
3.826667,0.03937007874015748
3.833333,0.031496062992125984
3.84,0.031496062992125984
3.846667,0.023622047244094488
3.853333,0.03937007874015748
3.86,0.06299212598425197
3.866667,0.09448818897637795
3.873333,0.11023622047244094
3.88,0.14173228346456693
3.886667,0.1732283464566929
3.893333,0.2125984251968504
3.9,0.25984251968503935
3.906667,0.2992125984251969
3.913333,0.3228346456692913
3.92,0.3464566929133858
3.926667,0.3937007874015748
3.933333,0.4409448818897638
3.94,0.48031496062992124
3.946667,0.5196850393700787
3.953333,0.5511811023622047
3.96,0.5748031496062992
3.966667,0.5984251968503937
3.973333,0.6141732283464567
3.98,0.5984251968503937
3.986667,0.5590551181102362
3.993333,0.5039370078740157
4.0,0.4409448818897638
4.006667,0.3858267716535433
4.013333,0.33070866141732286
4.02,0.2677165354330709
4.026667,0.1968503937007874
4.033333,0.12598425196850394
4.04,0.07874015748031496
4.046667,0.05511811023622047
4.053333,0.03937007874015748
4.06,0.023622047244094488
4.066667,0.0
4.073333,-0.03940083661417323
4.08,-0.05514886811023622
4.086667,-0.06302288385826772
4.093333,-0.06302288385826772
4.1,-0.06302288385826772
4.106667,-0.06302288385826772
4.113333,-0.06302288385826772
4.12,-0.047274852362204724
4.126667,-0.01577878937007874
4.133333,0.007843257874015748
4.14,0.031496062992125984
4.146667,0.03937007874015748
4.153333,0.03937007874015748
4.16,0.023622047244094488
4.166667,0.007874015748031496
4.173333,-0.007874015748031496
4.18,-0.023652805118110236
4.186667,-0.03152682086614173
4.193333,-0.047274852362204724
4.2,-0.047274852362204724
4.206667,-0.03152682086614173
4.213333,-0.007904773622047244
4.22,0.015717273622047244
4.226667,0.023622047244094488
4.233333,0.023622047244094488
4.24,0.023622047244094488
4.246667,0.031496062992125984
4.253333,0.031496062992125984
4.26,0.023622047244094488
4.266667,0.007874015748031496
4.273333,0.0
4.28,-0.007904773622047244
4.286667,-3.075787401574803e-05
4.293333,0.007843257874015748
4.3,0.015748031496062992
4.306667,0.023622047244094488
4.313333,0.023622047244094488
4.32,0.023622047244094488
4.326667,0.023622047244094488
4.333333,0.015748031496062992
4.34,0.0
4.346667,-0.023652805118110236
4.353333,-0.03940083661417323
4.36,-0.047274852362204724
4.366667,-0.05514886811023622
4.373333,-0.05514886811023622
4.38,-0.05514886811023622
4.386667,-0.03940083661417323
4.393333,-0.007904773622047244
4.4,0.031465305118110236
4.406667,0.06299212598425197
4.413333,0.08661417322834646
4.42,0.09448818897637795
4.426667,0.09448818897637795
4.433333,0.07086614173228346
4.44,0.03937007874015748
4.446667,-0.007874015748031496
4.453333,-0.06302288385826772
4.46,-0.1023929625984252
4.466667,-0.12601500984251968
4.473333,-0.12601500984251968
4.48,-0.1102669783464567
4.486667,-0.07877091535433071
4.493333,-0.06302288385826772
4.5,-0.12601500984251968
4.506667,-0.12601500984251968
4.513333,-0.1023929625984252
4.52,0.25193774606299213
4.526667,0.7874015748031497
4.533333,1.0
4.54,1.0
4.546667,0.5984251968503937
4.553333,-0.16535433070866143
4.56,-0.6142039862204725
4.566667,-0.6929441437007874
4.573333,-0.6929441437007874
4.58,-0.5512118602362205
4.586667,-0.2992433562992126
4.593333,-0.1023929625984252
4.6,-0.01577878937007874
4.606667,0.007843257874015748
4.613333,0.007874015748031496
4.62,0.007874015748031496
4.626667,0.007874015748031496
4.633333,0.09448818897637795
4.64,0.14173228346456693
4.646667,0.16535433070866143
4.653333,0.1732283464566929
4.66,0.18110236220472442
4.666667,0.18110236220472442
4.673333,0.1889763779527559
4.68,0.2047244094488189
4.686667,0.2283464566929134
4.693333,0.2440944881889764
4.7,0.25984251968503935
4.706667,0.2755905511811024
4.713333,0.29133858267716534
4.72,0.3228346456692913
4.726667,0.3543307086614173
4.733333,0.3937007874015748
4.74,0.4330708661417323
4.746667,0.47244094488188976
4.753333,0.5118110236220472
4.76,0.5433070866141733
4.766667,0.5669291338582677
4.773333,0.5669291338582677
4.78,0.5669291338582677
4.786667,0.5511811023622047
4.793333,0.5275590551181102
4.8,0.4881889763779528
4.806667,0.44881889763779526
4.813333,0.3937007874015748
4.82,0.3464566929133858
4.826667,0.29133858267716534
4.833333,0.2283464566929134
4.84,0.1732283464566929
4.846667,0.11811023622047244
4.853333,0.07086614173228346
4.86,0.031496062992125984
4.866667,0.007874015748031496
4.873333,-0.007874015748031496
4.88,-0.01577878937007874
4.886667,-0.023652805118110236
4.893333,-0.03940083661417323
4.9,-0.05514886811023622
4.906667,-0.06302288385826772
4.913333,-0.07877091535433071
4.92,-0.0945189468503937
4.926667,-0.1023929625984252
4.933333,-0.1181409940944882
4.94,-0.12601500984251968
4.946667,-0.1338890255905512
4.953333,-0.1338890255905512
4.96,-0.12601500984251968
4.966667,-0.12601500984251968
4.973333,-0.12601500984251968
4.98,-0.12601500984251968
4.986667,-0.12601500984251968
4.993333,-0.1181409940944882
5.0,-0.1102669783464567
5.006667,-0.1102669783464567
5.013333,-0.1102669783464567
5.02,-0.1181409940944882
5.026667,-0.1181409940944882
5.033333,-0.12601500984251968
5.04,-0.12601500984251968
5.046667,-0.1338890255905512
5.053333,-0.12601500984251968
5.06,-0.12601500984251968
5.066667,-0.12601500984251968
5.073333,-0.12601500984251968
5.08,-0.12601500984251968
5.086667,-0.12601500984251968
5.093333,-0.1181409940944882
5.1,-0.1102669783464567
5.106667,-0.0945189468503937
5.113333,-0.07877091535433071
5.12,-0.06302288385826772
5.126667,-0.047274852362204724
5.133333,-0.03152682086614173
5.14,-0.01577878937007874
5.146667,-0.007904773622047244
5.153333,-0.007904773622047244
5.16,-0.01577878937007874
5.166667,-0.023652805118110236
5.173333,-0.03152682086614173
5.18,-0.023652805118110236
5.186667,-0.01577878937007874
5.193333,-3.075787401574803e-05
5.2,0.015717273622047244
5.206667,0.03937007874015748
5.213333,0.05511811023622047
5.22,0.07874015748031496
5.226667,0.10236220472440945
5.233333,0.11023622047244094
5.24,0.11811023622047244
5.246667,0.11811023622047244
5.253333,0.11811023622047244
5.26,0.11811023622047244
5.266667,0.10236220472440945
5.273333,0.08661417322834646
5.28,0.06299212598425197
5.286667,0.047244094488188976
5.293333,0.031496062992125984
5.3,0.007874015748031496
5.306667,-0.07086614173228346
5.313333,-0.07089689960629922
5.32,0.015717273622047244
5.326667,0.44881889763779526
5.333333,0.9212598425196851
5.34,-0.968503937007874
5.346667,-0.968503937007874
5.353333,0.5748031496062992
5.36,-0.3228346456692913
5.366667,-0.7480622539370079
5.373333,-0.7480622539370079
5.38,-0.6378260334645669
5.386667,-0.34648745078740156
5.393333,-0.12601500984251968
5.4,-0.07089689960629922
5.406667,-0.07089689960629922
5.413333,-0.07089689960629922
5.42,-0.05514886811023622
5.426667,0.015717273622047244
5.433333,0.11811023622047244
5.44,0.1732283464566929
5.446667,0.1732283464566929
5.453333,0.1732283464566929
5.46,0.1889763779527559
5.466667,0.2047244094488189
5.473333,0.2204724409448819
5.48,0.2283464566929134
5.486667,0.23622047244094488
5.493333,0.2440944881889764
5.5,0.25196850393700787
5.506667,0.25984251968503935
5.513333,0.2755905511811024
5.52,0.29133858267716534
5.526667,0.30708661417322836
5.533333,0.33070866141732286
5.54,0.3700787401574803
5.546667,0.41732283464566927
5.553333,0.4645669291338583
5.56,0.5039370078740157
5.566667,0.5354330708661418
5.573333,0.5669291338582677
5.58,0.5905511811023622
5.586667,0.5905511811023622
5.593333,0.5826771653543307
5.6,0.5511811023622047
5.606667,0.5039370078740157
5.613333,0.44881889763779526
5.62,0.3858267716535433
5.626667,0.31496062992125984
5.633333,0.23622047244094488
5.64,0.16535433070866143
5.646667,0.10236220472440945
5.653333,0.06299212598425197
5.66,0.03937007874015748
5.666667,0.023622047244094488
5.673333,0.023622047244094488
5.68,0.015748031496062992
5.686667,0.007874015748031496
5.693333,-0.007874015748031496
5.7,-0.023652805118110236
5.706667,-0.03940083661417323
5.713333,-0.05514886811023622
5.72,-0.07089689960629922
5.726667,-0.07877091535433071
5.733333,-0.08664493110236221
5.74,-0.07089689960629922
5.746667,-0.047274852362204724
5.753333,-0.01577878937007874
5.76,0.007843257874015748
5.766667,0.023622047244094488
5.773333,0.023622047244094488
5.78,0.023622047244094488
5.786667,0.023622047244094488
5.793333,0.023622047244094488
5.8,0.015748031496062992
5.806667,0.0
5.813333,-0.01577878937007874
5.82,-0.03152682086614173
5.826667,-0.03152682086614173
5.833333,-0.03152682086614173
5.84,-0.03152682086614173
5.846667,-0.023652805118110236
5.853333,-0.01577878937007874
5.86,-0.023652805118110236
5.866667,-0.023652805118110236
5.873333,-0.03152682086614173
5.88,-0.03152682086614173
5.886667,-0.03152682086614173
5.893333,-0.03940083661417323
5.9,-0.05514886811023622
5.906667,-0.07089689960629922
5.913333,-0.07877091535433071
5.92,-0.07877091535433071
5.926667,-0.07877091535433071
5.933333,-0.07877091535433071
5.94,-0.07877091535433071
5.946667,-0.06302288385826772
5.953333,-0.05514886811023622
5.96,-0.03940083661417323
5.966667,-0.023652805118110236
5.973333,-0.007904773622047244
5.98,0.015717273622047244
5.986667,0.047244094488188976
5.993333,0.07874015748031496
6.0,0.10236220472440945
6.006667,0.11811023622047244
6.013333,0.12598425196850394
6.02,0.12598425196850394
6.026667,0.11811023622047244
6.033333,0.10236220472440945
6.04,0.07874015748031496
6.046667,0.047244094488188976
6.053333,0.015748031496062992
6.06,-0.007874015748031496
6.066667,-0.01577878937007874
6.073333,-0.01577878937007874
6.08,-0.01577878937007874
6.086667,-0.05514886811023622
6.093333,-0.05514886811023622
6.1,0.007843257874015748
6.106667,0.3858267716535433
6.113333,0.968503937007874
6.12,-0.7874015748031497
6.126667,-0.7874015748031497
6.133333,0.8110236220472441
6.14,-0.015748031496062992
6.146667,-0.5984559547244095
6.153333,-0.7716843011811023
6.16,-0.7716843011811023
6.166667,-0.6142039862204725
6.173333,-0.34648745078740156
6.18,-0.14963705708661418
6.186667,-0.03940083661417323
6.193333,-0.007904773622047244
6.2,0.007843257874015748
6.206667,0.023622047244094488
6.213333,0.047244094488188976
6.22,0.07086614173228346
6.226667,0.07874015748031496
6.233333,0.07874015748031496
6.24,0.07874015748031496
6.246667,0.08661417322834646
6.253333,0.11023622047244094
6.26,0.14173228346456693
6.266667,0.1732283464566929
6.273333,0.2204724409448819
6.28,0.2677165354330709
6.286667,0.30708661417322836
6.293333,0.3543307086614173
6.3,0.4015748031496063
6.306667,0.4330708661417323
6.313333,0.44881889763779526
6.32,0.44881889763779526
6.326667,0.4566929133858268
6.333333,0.48031496062992124
6.34,0.5118110236220472
6.346667,0.5511811023622047
6.353333,0.5905511811023622
6.36,0.6220472440944882
6.366667,0.6377952755905512
6.373333,0.6535433070866141
6.38,0.6535433070866141
6.386667,0.6220472440944882
6.393333,0.5669291338582677
6.4,0.49606299212598426
6.406667,0.4251968503937008
6.413333,0.3543307086614173
6.42,0.29133858267716534
6.426667,0.2204724409448819
6.433333,0.15748031496062992
6.44,0.11023622047244094
6.446667,0.07874015748031496
6.453333,0.05511811023622047
6.46,0.023622047244094488
6.466667,-0.007874015748031496
6.473333,-0.03152682086614173
6.48,-0.05514886811023622
6.486667,-0.07877091535433071
6.493333,-0.0945189468503937
6.5,-0.1102669783464567
6.506667,-0.1181409940944882
6.513333,-0.1181409940944882
6.52,-0.1102669783464567
6.526667,-0.0945189468503937
6.533333,-0.07089689960629922
6.54,-0.047274852362204724
6.546667,-0.023652805118110236
6.553333,-0.01577878937007874
6.56,-0.03152682086614173
6.566667,-0.047274852362204724
6.573333,-0.06302288385826772
6.58,-0.07877091535433071
6.586667,-0.0945189468503937
6.593333,-0.1181409940944882
6.6,-0.1338890255905512
6.606667,-0.14176304133858267
6.613333,-0.1338890255905512
6.62,-0.1181409940944882
6.626667,-0.1102669783464567
6.633333,-0.1102669783464567
6.64,-0.12601500984251968
6.646667,-0.14176304133858267
6.653333,-0.14963705708661418
6.66,-0.15751107283464566
6.666667,-0.16538508858267717
6.673333,-0.16538508858267717
6.68,-0.17325910433070865
6.686667,-0.15751107283464566
6.693333,-0.12601500984251968
6.7,-0.07877091535433071
6.706667,-0.03940083661417323
6.713333,-0.007904773622047244
6.72,0.015717273622047244
6.726667,0.047244094488188976
6.733333,0.07874015748031496
6.74,0.11023622047244094
6.746667,0.12598425196850394
6.753333,0.12598425196850394
6.76,0.11811023622047244
6.766667,0.10236220472440945
6.773333,0.07874015748031496
6.78,0.03937007874015748
6.786667,-0.007874015748031496
6.793333,-0.05514886811023622
6.8,-0.08664493110236221
6.806667,-0.1102669783464567
6.813333,-0.1023929625984252
6.82,-0.0945189468503937
6.826667,-0.07089689960629922
6.833333,-0.03940083661417323
6.84,0.36217396653543305
6.846667,0.8661417322834646
6.853333,-0.889763779527559
6.86,-0.889763779527559
6.866667,0.7165354330708661
6.873333,-0.14173228346456693
6.88,-0.6299520177165354
6.886667,-0.6693220964566929
6.893333,-0.6693220964566929
6.9,-0.45672367125984253
6.906667,-0.23625123031496062
6.913333,-0.17325910433070865
6.92,-0.17325910433070865
6.926667,-0.17325910433070865
6.933333,-0.12601500984251968
6.94,-0.05514886811023622
6.946667,0.06296136811023623
6.953333,0.11811023622047244
6.96,0.12598425196850394
6.966667,0.13385826771653545
6.973333,0.14960629921259844
6.98,0.1732283464566929
6.986667,0.1968503937007874
6.993333,0.2204724409448819
7.0,0.2283464566929134
7.006667,0.23622047244094488
7.013333,0.2440944881889764
7.02,0.2440944881889764
7.026667,0.2677165354330709
7.033333,0.2755905511811024
7.04,0.28346456692913385
7.046667,0.28346456692913385
7.053333,0.30708661417322836
7.06,0.33858267716535434
7.066667,0.3858267716535433
7.073333,0.4251968503937008
7.08,0.4566929133858268
7.086667,0.48031496062992124
7.093333,0.49606299212598426
7.1,0.5118110236220472
7.106667,0.5118110236220472
7.113333,0.47244094488188976
7.12,0.4094488188976378
7.126667,0.33858267716535434
7.133333,0.2755905511811024
7.14,0.2204724409448819
7.146667,0.1732283464566929
7.153333,0.11023622047244094
7.16,0.05511811023622047
7.166667,0.007874015748031496
7.173333,-0.015748031496062992
7.18,-0.03152682086614173
7.186667,-0.047274852362204724
7.193333,-0.07089689960629922
7.2,-0.08664493110236221
7.206667,-0.07877091535433071
7.213333,-0.07089689960629922
7.22,-0.05514886811023622
7.226667,-0.03940083661417323
7.233333,-0.03152682086614173
7.24,-0.023652805118110236
7.246667,-0.007904773622047244
7.253333,0.02359128937007874
7.26,0.03937007874015748
7.266667,0.03937007874015748
7.273333,0.031496062992125984
7.28,0.023622047244094488
7.286667,0.023622047244094488
7.293333,0.023622047244094488
7.3,0.007874015748031496
7.306667,-0.007874015748031496
7.313333,-0.03152682086614173
7.32,-0.03940083661417323
7.326667,-0.03940083661417323
7.333333,-0.047274852362204724
7.34,-0.047274852362204724
7.346667,-0.05514886811023622
7.353333,-0.047274852362204724
7.36,-0.047274852362204724
7.366667,-0.03940083661417323
7.373333,-0.03152682086614173
7.38,-0.03152682086614173
7.386667,-0.03152682086614173
7.393333,-0.03152682086614173
7.4,-0.023652805118110236
7.406667,-0.023652805118110236
7.413333,-0.01577878937007874
7.42,-3.075787401574803e-05
7.426667,0.02359128937007874
7.433333,0.05511811023622047
7.44,0.07874015748031496
7.446667,0.10236220472440945
7.453333,0.11023622047244094
7.46,0.11811023622047244
7.466667,0.11023622047244094
7.473333,0.07874015748031496
7.48,0.031496062992125984
7.486667,-0.007874015748031496
7.493333,-0.047274852362204724
7.5,-0.07089689960629922
7.506667,-0.08664493110236221
7.513333,-0.1023929625984252
7.52,-0.1338890255905512
7.526667,-0.1338890255905512
7.533333,-0.1102669783464567
7.54,0.25193774606299213
7.546667,0.952755905511811
7.553333,-0.7086614173228346
7.56,-0.7086614173228346
7.566667,0.8661417322834646
7.573333,-0.007874015748031496
7.58,-0.5669598917322834
7.586667,-0.7008181594488189
7.593333,-0.7008181594488189
7.6,-0.5669598917322834
7.606667,-0.3622354822834646
7.613333,-0.2598732775590551
7.62,-0.22837721456692914
7.626667,-0.19688115157480315
7.633333,-0.12601500984251968
7.64,-0.03152682086614173
7.646667,0.04721333661417323
7.653333,0.11023622047244094
7.66,0.11811023622047244
7.666667,0.12598425196850394
7.673333,0.13385826771653545
7.68,0.13385826771653545
7.686667,0.14173228346456693
7.693333,0.14173228346456693
7.7,0.14960629921259844
7.706667,0.15748031496062992
7.713333,0.16535433070866143
7.72,0.18110236220472442
7.726667,0.1968503937007874
7.733333,0.2204724409448819
7.74,0.2440944881889764
7.746667,0.2677165354330709
7.753333,0.29133858267716534
7.76,0.31496062992125984
7.766667,0.3464566929133858
7.773333,0.36220472440944884
7.78,0.3700787401574803
7.786667,0.3700787401574803
7.793333,0.3779527559055118
7.8,0.3937007874015748
7.806667,0.3937007874015748
7.813333,0.3858267716535433
7.82,0.36220472440944884
7.826667,0.3228346456692913
7.833333,0.28346456692913385
7.84,0.2283464566929134
7.846667,0.15748031496062992
7.853333,0.07086614173228346
7.86,-0.007874015748031496
7.866667,-0.07877091535433071
7.873333,-0.12601500984251968
7.88,-0.17325910433070865
7.886667,-0.22050319881889763
7.893333,-0.2519992618110236
7.9,-0.26774729330708663
7.906667,-0.26774729330708663
7.913333,-0.2519992618110236
7.92,-0.23625123031496062
7.926667,-0.21262918307086615
7.933333,-0.18900713582677164
7.94,-0.16538508858267717
7.946667,-0.14963705708661418
7.953333,-0.1338890255905512
7.96,-0.14176304133858267
7.966667,-0.17325910433070865
7.973333,-0.20475516732283464
7.98,-0.22837721456692914
7.986667,-0.23625123031496062
7.993333,-0.22050319881889763
8.0,-0.19688115157480315
8.006667,-0.17325910433070865
8.013333,-0.14176304133858267
8.02,-0.1023929625984252
8.026667,-0.07089689960629922
8.033333,-0.047274852362204724
8.04,-0.047274852362204724
8.046667,-0.05514886811023622
8.053333,-0.07089689960629922
8.06,-0.08664493110236221
8.066667,-0.1023929625984252
8.073333,-0.1181409940944882
8.08,-0.1181409940944882
8.086667,-0.1023929625984252
8.093333,-0.07089689960629922
8.1,-0.047274852362204724
8.106667,-0.023652805118110236
8.113333,-3.075787401574803e-05
8.12,0.02359128937007874
8.126667,0.05511811023622047
8.133333,0.08661417322834646
8.14,0.09448818897637795
8.146667,0.09448818897637795
8.153333,0.09448818897637795
8.16,0.08661417322834646
8.166667,0.07874015748031496
8.173333,0.06299212598425197
8.18,0.031496062992125984
8.186667,-0.015748031496062992
8.193333,-0.05514886811023622
8.2,-0.08664493110236221
8.206667,-0.0945189468503937
8.213333,-0.1102669783464567
8.22,-0.1181409940944882
8.226667,-0.1181409940944882
8.233333,-0.1023929625984252
8.24,0.37792199803149606
8.246667,0.9291338582677166
8.253333,-0.8740157480314961
8.26,-0.8740157480314961
8.266667,0.6850393700787402
8.273333,-0.14960629921259844
8.28,-0.5354638287401575
8.286667,-0.5354638287401575
8.293333,-0.4724717027559055
8.3,-0.32286540354330706
8.306667,-0.18900713582677164
8.313333,-0.1181409940944882
8.32,-0.047274852362204724
8.326667,0.03933932086614173
8.333333,0.13385826771653545
8.34,0.1732283464566929
8.346667,0.1732283464566929
8.353333,0.14960629921259844
8.36,0.10236220472440945
8.366667,0.06299212598425197
8.373333,0.047244094488188976
8.38,0.047244094488188976
8.386667,0.05511811023622047
8.393333,0.08661417322834646
8.4,0.11811023622047244
8.406667,0.14173228346456693
8.413333,0.15748031496062992
8.42,0.18110236220472442
8.426667,0.2204724409448819
8.433333,0.2677165354330709
8.44,0.31496062992125984
8.446667,0.3543307086614173
8.453333,0.3937007874015748
8.46,0.4330708661417323
8.466667,0.4645669291338583
8.473333,0.5039370078740157
8.48,0.5275590551181102
8.486667,0.5433070866141733
8.493333,0.5590551181102362
8.5,0.5590551181102362
8.506667,0.5511811023622047
8.513333,0.5196850393700787
8.52,0.4881889763779528
8.526667,0.44881889763779526
8.533333,0.3937007874015748
8.54,0.33070866141732286
8.546667,0.25196850393700787
8.553333,0.18110236220472442
8.56,0.12598425196850394
8.566667,0.07874015748031496
8.573333,0.03937007874015748
8.58,0.0
8.586667,-0.03152682086614173
8.593333,-0.047274852362204724
8.6,-0.05514886811023622
8.606667,-0.05514886811023622
8.613333,-0.03940083661417323
8.62,-0.03940083661417323
8.626667,-0.03152682086614173
8.633333,-0.01577878937007874
8.64,-3.075787401574803e-05
8.646667,0.02359128937007874
8.653333,0.03937007874015748
8.66,0.047244094488188976
8.666667,0.023622047244094488
8.673333,0.0
8.68,-0.023652805118110236
8.686667,-0.03940083661417323
8.693333,-0.047274852362204724
8.7,-0.047274852362204724
8.706667,-0.047274852362204724
8.713333,-0.047274852362204724
8.72,-0.047274852362204724
8.726667,-0.03940083661417323
8.733333,-0.03152682086614173
8.74,-0.03940083661417323
8.746667,-0.05514886811023622
8.753333,-0.07089689960629922
8.76,-0.0945189468503937
8.766667,-0.1023929625984252
8.773333,-0.0945189468503937
8.78,-0.08664493110236221
8.786667,-0.07877091535433071
8.793333,-0.07089689960629922
8.8,-0.07089689960629922
8.806667,-0.05514886811023622
8.813333,-0.03940083661417323
8.82,-0.023652805118110236
8.826667,-0.023652805118110236
8.833333,-0.01577878937007874
8.84,-3.075787401574803e-05
8.846667,0.02359128937007874
8.853333,0.05511811023622047
8.86,0.07874015748031496
8.866667,0.10236220472440945
8.873333,0.12598425196850394
8.88,0.14960629921259844
8.886667,0.15748031496062992
8.893333,0.13385826771653545
8.9,0.11023622047244094
8.906667,0.07874015748031496
8.913333,0.047244094488188976
8.92,0.015748031496062992
8.926667,-0.023622047244094488
8.933333,-0.06302288385826772
8.94,-0.08664493110236221
8.946667,-0.07877091535433071
8.953333,-0.07877091535433071
8.96,-0.023652805118110236
8.966667,0.15744955708661418
8.973333,0.6614173228346457
8.98,-0.9448818897637795
8.986667,-0.8661417322834646
8.993333,-0.8661417322834646
9.0,0.6141732283464567
9.006667,-0.3700787401574803
9.013333,-0.8268024114173228
9.02,-0.8268024114173228
9.026667,-0.6850701279527559
9.033333,-0.37798351377952755
9.04,-0.1181409940944882
9.046667,-0.023652805118110236
9.053333,-3.075787401574803e-05
9.06,0.03933932086614173
9.066667,0.07874015748031496
9.073333,0.10236220472440945
9.08,0.11811023622047244
9.086667,0.14173228346456693
9.093333,0.15748031496062992
9.1,0.15748031496062992
9.106667,0.15748031496062992
9.113333,0.15748031496062992
9.12,0.16535433070866143
9.126667,0.1889763779527559
9.133333,0.2204724409448819
9.14,0.2440944881889764
9.146667,0.29133858267716534
9.153333,0.33070866141732286
9.16,0.3700787401574803
9.166667,0.4094488188976378
9.173333,0.44881889763779526
9.18,0.4881889763779528
9.186667,0.5196850393700787
9.193333,0.5433070866141733
9.2,0.5590551181102362
9.206667,0.5748031496062992
9.213333,0.5984251968503937
9.22,0.6141732283464567
9.226667,0.6220472440944882
9.233333,0.6220472440944882
9.24,0.5984251968503937
9.246667,0.5590551181102362
9.253333,0.5039370078740157
9.26,0.4409448818897638
9.266667,0.3779527559055118
9.273333,0.2992125984251969
9.28,0.2204724409448819
9.286667,0.14173228346456693
9.293333,0.08661417322834646
9.3,0.047244094488188976
9.306667,0.023622047244094488
9.313333,0.007874015748031496
9.32,-0.015748031496062992
9.326667,-0.03152682086614173
9.333333,-0.047274852362204724
9.34,-0.06302288385826772
9.346667,-0.07877091535433071
9.353333,-0.07877091535433071
9.36,-0.08664493110236221
9.366667,-0.0945189468503937
9.373333,-0.08664493110236221
9.38,-0.06302288385826772
9.386667,-0.03152682086614173
9.393333,-0.007904773622047244
9.4,0.007843257874015748
9.406667,0.0
9.413333,-0.007904773622047244
9.42,-0.03152682086614173
9.426667,-0.05514886811023622
9.433333,-0.07877091535433071
9.44,-0.1023929625984252
9.446667,-0.1181409940944882
9.453333,-0.1181409940944882
9.46,-0.1023929625984252
9.466667,-0.08664493110236221
9.473333,-0.05514886811023622
9.48,-0.023652805118110236
9.486667,-3.075787401574803e-05
9.493333,0.007843257874015748
9.5,0.007874015748031496
9.506667,0.0
9.513333,-0.023652805118110236
9.52,-0.03940083661417323
9.526667,-0.06302288385826772
9.533333,-0.07877091535433071
9.54,-0.07877091535433071
9.546667,-0.07877091535433071
9.553333,-0.07089689960629922
9.56,-0.06302288385826772
9.566667,-0.05514886811023622
9.573333,-0.047274852362204724
9.58,-0.03940083661417323
9.586667,-0.023652805118110236
9.593333,-3.075787401574803e-05
9.6,0.031465305118110236
9.606667,0.06299212598425197
9.613333,0.09448818897637795
9.62,0.12598425196850394
9.626667,0.16535433070866143
9.633333,0.1968503937007874
9.64,0.2047244094488189
9.646667,0.18110236220472442
9.653333,0.14960629921259844
9.66,0.11023622047244094
9.666667,0.07086614173228346
9.673333,0.031496062992125984
9.68,0.0
9.686667,-0.03940083661417323
9.693333,-0.06302288385826772
9.7,-0.07089689960629922
9.706667,-0.07877091535433071
9.713333,-0.0945189468503937
9.72,-0.17325910433070865
9.726667,-0.01577878937007874
9.733333,0.551150344488189
9.74,-0.9763779527559056
9.746667,-0.905511811023622
9.753333,-0.905511811023622
9.76,0.6220472440944882
9.766667,-0.25196850393700787
9.773333,-0.6457000492125984
9.78,-0.6457000492125984
9.786667,-0.590581938976378
9.793333,-0.37798351377952755
9.8,-0.1023929625984252
9.806667,0.015717273622047244
9.813333,0.015748031496062992
9.82,0.007874015748031496
9.826667,0.0
9.833333,-3.075787401574803e-05
9.84,0.031465305118110236
9.846667,0.06299212598425197
9.853333,0.06299212598425197
9.86,0.05511811023622047
9.866667,0.05511811023622047
9.873333,0.06299212598425197
9.88,0.09448818897637795
9.886667,0.13385826771653545
9.893333,0.16535433070866143
9.9,0.1968503937007874
9.906667,0.23622047244094488
9.913333,0.28346456692913385
9.92,0.33070866141732286
9.926667,0.3779527559055118
9.933333,0.4094488188976378
9.94,0.4330708661417323
9.946667,0.4566929133858268
9.953333,0.47244094488188976
9.96,0.49606299212598426
9.966667,0.5196850393700787
9.973333,0.5433070866141733
9.98,0.5590551181102362
9.986667,0.5669291338582677
9.993333,0.5669291338582677
10.0,0.5590551181102362
10.006667,0.5433070866141733
10.013333,0.5039370078740157
10.02,0.4566929133858268
10.026667,0.4094488188976378
10.033333,0.3543307086614173
10.04,0.29133858267716534
10.046667,0.2204724409448819
10.053333,0.15748031496062992
10.06,0.10236220472440945
10.066667,0.06299212598425197
10.073333,0.03937007874015748
10.08,0.007874015748031496
10.086667,-0.015748031496062992
10.093333,-0.03152682086614173
10.1,-0.03940083661417323
10.106667,-0.03940083661417323
10.113333,-0.03940083661417323
10.12,-0.047274852362204724
10.126667,-0.05514886811023622
10.133333,-0.07089689960629922
10.14,-0.07089689960629922
10.146667,-0.07089689960629922
10.153333,-0.06302288385826772
10.16,-0.06302288385826772
10.166667,-0.05514886811023622
10.173333,-0.05514886811023622
10.18,-0.05514886811023622
10.186667,-0.05514886811023622
10.193333,-0.047274852362204724
10.2,-0.047274852362204724
10.206667,-0.05514886811023622
10.213333,-0.06302288385826772
10.22,-0.07877091535433071
10.226667,-0.08664493110236221
10.233333,-0.08664493110236221
10.24,-0.07877091535433071
10.246667,-0.07877091535433071
10.253333,-0.08664493110236221
10.26,-0.08664493110236221
10.266667,-0.08664493110236221
10.273333,-0.07877091535433071
10.28,-0.07089689960629922
10.286667,-0.07089689960629922
10.293333,-0.07089689960629922
10.3,-0.07877091535433071
10.306667,-0.07877091535433071
10.313333,-0.07877091535433071
10.32,-0.07089689960629922
10.326667,-0.06302288385826772
10.333333,-0.06302288385826772
10.34,-0.06302288385826772
10.346667,-0.06302288385826772
10.353333,-0.05514886811023622
10.36,-0.05514886811023622
10.366667,-0.047274852362204724
10.373333,-0.03940083661417323
10.38,-0.023652805118110236
10.386667,-3.075787401574803e-05
10.393333,0.02359128937007874
10.4,0.05511811023622047
10.406667,0.08661417322834646
10.413333,0.11023622047244094
10.42,0.13385826771653545
10.426667,0.14960629921259844
10.433333,0.16535433070866143
10.44,0.18110236220472442
10.446667,0.18110236220472442
10.453333,0.15748031496062992
10.46,0.12598425196850394
10.466667,0.09448818897637795
10.473333,0.06299212598425197
10.48,0.031496062992125984
10.486667,0.0
10.493333,-0.03152682086614173
10.5,-0.05514886811023622
10.506667,-0.07089689960629922
10.513333,-0.1102669783464567
10.52,0.04721333661417323
10.526667,0.5039370078740157
10.533333,0.952755905511811
10.54,-0.9133858267716536
10.546667,-0.9133858267716536
10.553333,0.6929133858267716
10.56,-0.09448818897637795
10.566667,-0.6299520177165354
10.573333,-0.7874323326771654
10.58,-0.7874323326771654
10.586667,-0.6614480807086615
10.593333,-0.40160556102362205
10.6,-0.14963705708661418
10.606667,-0.03940083661417323
10.613333,-0.03152682086614173
10.62,-0.03152682086614173
10.626667,-0.03152682086614173
10.633333,-0.023652805118110236
10.64,0.02359128937007874
10.646667,0.07874015748031496
10.653333,0.08661417322834646
10.66,0.08661417322834646
10.666667,0.09448818897637795
10.673333,0.11023622047244094
10.68,0.12598425196850394
10.686667,0.14173228346456693
10.693333,0.15748031496062992
10.7,0.18110236220472442
10.706667,0.1968503937007874
10.713333,0.2283464566929134
10.72,0.25984251968503935
10.726667,0.2992125984251969
10.733333,0.33070866141732286
10.74,0.36220472440944884
10.746667,0.3937007874015748
10.753333,0.4330708661417323
10.76,0.47244094488188976
10.766667,0.5118110236220472
10.773333,0.5354330708661418
10.78,0.5433070866141733
10.786667,0.5511811023622047
10.793333,0.5433070866141733
10.8,0.5196850393700787
10.806667,0.47244094488188976
10.813333,0.4094488188976378
10.82,0.3464566929133858
10.826667,0.28346456692913385
10.833333,0.2283464566929134
10.84,0.15748031496062992
10.846667,0.10236220472440945
10.853333,0.06299212598425197
10.86,0.047244094488188976
10.866667,0.031496062992125984
10.873333,0.007874015748031496
10.88,-0.007874015748031496
10.886667,-0.023652805118110236
10.893333,-0.023652805118110236
10.9,-0.01577878937007874
10.906667,-0.01577878937007874
10.913333,-0.01577878937007874
10.92,-0.01577878937007874
10.926667,-0.023652805118110236
10.933333,-0.023652805118110236
10.94,-0.03152682086614173
10.946667,-0.03152682086614173
10.953333,-0.03940083661417323
10.96,-0.03940083661417323
10.966667,-0.03940083661417323
10.973333,-0.03152682086614173
10.98,-0.023652805118110236
10.986667,-0.007904773622047244
10.993333,0.007843257874015748
11.0,0.007874015748031496
11.006667,0.007874015748031496
11.013333,-0.007874015748031496
11.02,-0.01577878937007874
11.026667,-0.023652805118110236
11.033333,-0.03940083661417323
11.04,-0.05514886811023622
11.046667,-0.07089689960629922
11.053333,-0.0945189468503937
11.06,-0.1023929625984252
11.066667,-0.0945189468503937
11.073333,-0.08664493110236221
11.08,-0.07877091535433071
11.086667,-0.07877091535433071
11.093333,-0.07089689960629922
11.1,-0.06302288385826772
11.106667,-0.05514886811023622
11.113333,-0.047274852362204724
11.12,-0.047274852362204724
11.126667,-0.05514886811023622
11.133333,-0.047274852362204724
11.14,-0.03940083661417323
11.146667,-0.023652805118110236
11.153333,-3.075787401574803e-05
11.16,0.015717273622047244
11.166667,0.03937007874015748
11.173333,0.047244094488188976
11.18,0.07086614173228346
11.186667,0.09448818897637795
11.193333,0.11811023622047244
11.2,0.14173228346456693
11.206667,0.15748031496062992
11.213333,0.16535433070866143
11.22,0.16535433070866143
11.226667,0.16535433070866143
11.233333,0.14960629921259844
11.24,0.12598425196850394
11.246667,0.08661417322834646
11.253333,0.05511811023622047
11.26,0.023622047244094488
11.266667,0.007874015748031496
11.273333,0.0
11.28,-0.007904773622047244
11.286667,-0.023652805118110236
11.293333,-0.03940083661417323
11.3,-0.14963705708661418
11.306667,-0.06302288385826772
11.313333,0.3228038877952756
11.32,0.905511811023622
11.326667,-0.8346456692913385
11.333333,-0.8346456692913385
11.34,0.7795275590551181
11.346667,-0.015748031496062992
11.353333,-0.5354638287401575
11.36,-0.6693220964566929
11.366667,-0.6693220964566929
11.373333,-0.5354638287401575
11.38,-0.3149913877952756
11.386667,-0.18900713582677164
11.393333,-0.1181409940944882
11.4,-0.06302288385826772
11.406667,-0.007904773622047244
11.413333,0.02359128937007874
11.42,0.031496062992125984
11.426667,0.03937007874015748
11.433333,0.05511811023622047
11.44,0.08661417322834646
11.446667,0.11811023622047244
11.453333,0.14173228346456693
11.46,0.15748031496062992
11.466667,0.16535433070866143
11.473333,0.1732283464566929
11.48,0.18110236220472442
11.486667,0.2204724409448819
11.493333,0.25196850393700787
11.5,0.28346456692913385
11.506667,0.30708661417322836
11.513333,0.33858267716535434
11.52,0.3937007874015748
11.526667,0.4566929133858268
11.533333,0.5118110236220472
11.54,0.5590551181102362
11.546667,0.5826771653543307
11.553333,0.6141732283464567
11.56,0.6377952755905512
11.566667,0.6456692913385826
11.573333,0.6299212598425197
11.58,0.5905511811023622
11.586667,0.5511811023622047
11.593333,0.5039370078740157
11.6,0.4645669291338583
11.606667,0.4094488188976378
11.613333,0.33858267716535434
11.62,0.2677165354330709
11.626667,0.2047244094488189
11.633333,0.14960629921259844
11.64,0.09448818897637795
11.646667,0.03937007874015748
11.653333,0.0
11.66,-0.03152682086614173
11.666667,-0.047274852362204724
11.673333,-0.05514886811023622
11.68,-0.05514886811023622
11.686667,-0.05514886811023622
11.693333,-0.047274852362204724
11.7,-0.047274852362204724
11.706667,-0.06302288385826772
11.713333,-0.07089689960629922
11.72,-0.07877091535433071
11.726667,-0.07877091535433071
11.733333,-0.07089689960629922
11.74,-0.06302288385826772
11.746667,-0.047274852362204724
11.753333,-0.03152682086614173
11.76,-0.007904773622047244
11.766667,0.007843257874015748
11.773333,0.023622047244094488
11.78,0.023622047244094488
11.786667,0.015748031496062992
11.793333,0.0
11.8,-0.01577878937007874
11.806667,-0.03152682086614173
11.813333,-0.047274852362204724
11.82,-0.05514886811023622
11.826667,-0.06302288385826772
11.833333,-0.06302288385826772
11.84,-0.06302288385826772
11.846667,-0.05514886811023622
11.853333,-0.05514886811023622
11.86,-0.047274852362204724
11.866667,-0.03152682086614173
11.873333,-0.03152682086614173
11.88,-0.03940083661417323
11.886667,-0.047274852362204724
11.893333,-0.047274852362204724
11.9,-0.047274852362204724
11.906667,-0.047274852362204724
11.913333,-0.03940083661417323
11.92,-0.03940083661417323
11.926667,-0.03940083661417323
11.933333,-0.023652805118110236
11.94,-3.075787401574803e-05
11.946667,0.007843257874015748
11.953333,0.023622047244094488
11.96,0.031496062992125984
11.966667,0.05511811023622047
11.973333,0.07874015748031496
11.98,0.11023622047244094
11.986667,0.12598425196850394
11.993333,0.14173228346456693
12.0,0.14173228346456693
12.006667,0.13385826771653545
12.013333,0.12598425196850394
12.02,0.10236220472440945
12.026667,0.07086614173228346
12.033333,0.03937007874015748
12.04,0.015748031496062992
12.046667,-0.007874015748031496
12.053333,-0.023652805118110236
12.06,-0.1338890255905512
12.066667,-0.1338890255905512
12.073333,-0.07877091535433071
12.08,0.3149298720472441
12.086667,-0.984251968503937
12.093333,-0.6141732283464567
12.1,-0.6141732283464567
12.106667,0.984251968503937
12.113333,0.15748031496062992
12.12,-0.41732283464566927
12.126667,-0.590581938976378
12.133333,-0.590581938976378
12.14,-0.511841781496063
12.146667,-0.38585752952755903
12.153333,-0.2756213090551181
12.16,-0.14176304133858267
12.166667,0.007843257874015748
12.173333,0.10236220472440945
12.18,0.13385826771653545
12.186667,0.13385826771653545
12.193333,0.12598425196850394
12.2,0.12598425196850394
12.206667,0.12598425196850394
12.213333,0.13385826771653545
12.22,0.14173228346456693
12.226667,0.15748031496062992
12.233333,0.1732283464566929
12.24,0.1968503937007874
12.246667,0.2204724409448819
12.253333,0.25196850393700787
12.26,0.28346456692913385
12.266667,0.30708661417322836
12.273333,0.3543307086614173
12.28,0.4015748031496063
12.286667,0.4409448818897638
12.293333,0.47244094488188976
12.3,0.5039370078740157
12.306667,0.5275590551181102
12.313333,0.5511811023622047
12.32,0.5669291338582677
12.326667,0.5669291338582677
12.333333,0.5590551181102362
12.34,0.5511811023622047
12.346667,0.5433070866141733
12.353333,0.5433070866141733
12.36,0.5275590551181102
12.366667,0.49606299212598426
12.373333,0.44881889763779526
12.38,0.3858267716535433
12.386667,0.31496062992125984
12.393333,0.25196850393700787
12.4,0.18110236220472442
12.406667,0.10236220472440945
12.413333,0.03937007874015748
12.42,0.0
12.426667,-0.01577878937007874
12.433333,-0.01577878937007874
12.44,-0.01577878937007874
12.446667,-0.01577878937007874
12.453333,-0.01577878937007874
12.46,-0.01577878937007874
12.466667,-0.023652805118110236
12.473333,-0.023652805118110236
12.48,-0.01577878937007874
12.486667,-0.023652805118110236
12.493333,-0.023652805118110236
12.5,-0.03152682086614173
12.506667,-0.03940083661417323
12.513333,-0.03152682086614173
12.52,-0.007904773622047244
12.526667,0.007843257874015748
12.533333,0.007874015748031496
12.54,0.007874015748031496
12.546667,0.0
12.553333,-3.075787401574803e-05
12.56,-3.075787401574803e-05
12.566667,-0.007904773622047244
12.573333,-0.01577878937007874
12.58,-0.023652805118110236
12.586667,-0.023652805118110236
12.593333,-0.01577878937007874
12.6,-0.007904773622047244
12.606667,-3.075787401574803e-05
12.613333,0.007843257874015748
12.62,0.007874015748031496
12.626667,0.0
12.633333,-0.007904773622047244
12.64,-0.023652805118110236
12.646667,-0.03940083661417323
12.653333,-0.05514886811023622
12.66,-0.07089689960629922
12.666667,-0.08664493110236221
12.673333,-0.0945189468503937
12.68,-0.0945189468503937
12.686667,-0.08664493110236221
12.693333,-0.07877091535433071
12.7,-0.07089689960629922
12.706667,-0.06302288385826772
12.713333,-0.047274852362204724
12.72,-0.03152682086614173
12.726667,-0.01577878937007874
12.733333,-0.007904773622047244
12.74,0.007843257874015748
12.746667,0.023622047244094488
12.753333,0.047244094488188976
12.76,0.06299212598425197
12.766667,0.08661417322834646
12.773333,0.11023622047244094
12.78,0.12598425196850394
12.786667,0.12598425196850394
12.793333,0.11023622047244094
12.8,0.07086614173228346
12.806667,0.031496062992125984
12.813333,-0.007874015748031496
12.82,-0.047274852362204724
12.826667,-0.07877091535433071
12.833333,-0.1023929625984252
12.84,-0.12601500984251968
12.846667,-0.14176304133858267
12.853333,-0.14176304133858267
12.86,-0.1181409940944882
12.866667,0.598394438976378
12.873333,0.968503937007874
12.88,0.968503937007874
12.886667,0.905511811023622
12.893333,0.3858267716535433
12.9,-0.3779527559055118
12.906667,-0.6929441437007874
12.913333,-0.6929441437007874
12.92,-0.5669598917322834
12.926667,-0.37798351377952755
12.933333,-0.2834953248031496
12.94,-0.22837721456692914
12.946667,-0.1338890255905512
12.953333,-0.01577878937007874
12.96,0.07083538385826772
12.966667,0.10236220472440945
12.973333,0.10236220472440945
12.98,0.09448818897637795
12.986667,0.07874015748031496
12.993333,0.06299212598425197
13.0,0.06299212598425197
13.006667,0.07086614173228346
13.013333,0.08661417322834646
13.02,0.09448818897637795
13.026667,0.11023622047244094
13.033333,0.14173228346456693
13.04,0.1732283464566929
13.046667,0.1889763779527559
13.053333,0.2283464566929134
13.06,0.25196850393700787
13.066667,0.2755905511811024
13.073333,0.30708661417322836
13.08,0.3464566929133858
13.086667,0.3858267716535433
13.093333,0.4094488188976378
13.1,0.4330708661417323
13.106667,0.4645669291338583
13.113333,0.4881889763779528
13.12,0.5196850393700787
13.126667,0.5354330708661418
13.133333,0.5354330708661418
13.14,0.5039370078740157
13.146667,0.4645669291338583
13.153333,0.4015748031496063
13.16,0.33858267716535434
13.166667,0.2677165354330709
13.173333,0.1889763779527559
13.18,0.11811023622047244
13.186667,0.047244094488188976
13.193333,-0.007874015748031496
13.2,-0.03940083661417323
13.206667,-0.06302288385826772
13.213333,-0.07089689960629922
13.22,-0.07877091535433071
13.226667,-0.08664493110236221
13.233333,-0.1023929625984252
13.24,-0.1102669783464567
13.246667,-0.12601500984251968
13.253333,-0.1338890255905512
13.26,-0.1338890255905512
13.266667,-0.12601500984251968
13.273333,-0.1102669783464567
13.28,-0.08664493110236221
13.286667,-0.06302288385826772
13.293333,-0.047274852362204724
13.3,-0.03152682086614173
13.306667,-0.023652805118110236
13.313333,-0.023652805118110236
13.32,-0.03152682086614173
13.326667,-0.047274852362204724
13.333333,-0.05514886811023622
13.34,-0.07089689960629922
13.346667,-0.07877091535433071
13.353333,-0.08664493110236221
13.36,-0.08664493110236221
13.366667,-0.08664493110236221
13.373333,-0.08664493110236221
13.38,-0.07877091535433071
13.386667,-0.07089689960629922
13.393333,-0.07089689960629922
13.4,-0.06302288385826772
13.406667,-0.05514886811023622
13.413333,-0.047274852362204724
13.42,-0.05514886811023622
13.426667,-0.06302288385826772
13.433333,-0.07089689960629922
13.44,-0.06302288385826772
13.446667,-0.047274852362204724
13.453333,-0.03152682086614173
13.46,-0.023652805118110236
13.466667,-0.01577878937007874
13.473333,-0.01577878937007874
13.48,-0.01577878937007874
13.486667,-0.007904773622047244
13.493333,-3.075787401574803e-05
13.5,-3.075787401574803e-05
13.506667,-0.007904773622047244
13.513333,-0.007904773622047244
13.52,-3.075787401574803e-05
13.526667,0.015717273622047244
13.533333,0.031496062992125984
13.54,0.047244094488188976
13.546667,0.05511811023622047
13.553333,0.07086614173228346
13.56,0.08661417322834646
13.566667,0.11811023622047244
13.573333,0.14960629921259844
13.58,0.16535433070866143
13.586667,0.16535433070866143
13.593333,0.14173228346456693
13.6,0.12598425196850394
13.606667,0.10236220472440945
13.613333,0.07086614173228346
13.62,0.031496062992125984
13.626667,-0.007874015748031496
13.633333,-0.047274852362204724
13.64,-0.07877091535433071
13.646667,-0.26774729330708663
13.653333,-0.26774729330708663
13.66,0.02359128937007874
13.666667,0.6929133858267716
13.673333,-0.937007874015748
13.68,-0.937007874015748
13.686667,0.9212598425196851
13.693333,0.33858267716535434
13.7,-0.3937007874015748
13.706667,-0.7086921751968503
13.713333,-0.7086921751968503
13.72,-0.606329970472441
13.726667,-0.40160556102362205
13.733333,-0.2519992618110236
13.74,-0.17325910433070865
13.746667,-0.0945189468503937
13.753333,0.007843257874015748
13.76,0.07086614173228346
13.766667,0.08661417322834646
13.773333,0.08661417322834646
13.78,0.08661417322834646
13.786667,0.07874015748031496
13.793333,0.07086614173228346
13.8,0.06299212598425197
13.806667,0.06299212598425197
13.813333,0.06299212598425197
13.82,0.07874015748031496
13.826667,0.10236220472440945
13.833333,0.13385826771653545
13.84,0.1732283464566929
13.846667,0.2125984251968504
13.853333,0.25196850393700787
13.86,0.29133858267716534
13.866667,0.3228346456692913
13.873333,0.3464566929133858
13.88,0.36220472440944884
13.886667,0.3779527559055118
13.893333,0.3937007874015748
13.9,0.4094488188976378
13.906667,0.41732283464566927
13.913333,0.41732283464566927
13.92,0.4094488188976378
13.926667,0.4094488188976378
13.933333,0.4015748031496063
13.94,0.3937007874015748
13.946667,0.36220472440944884
13.953333,0.30708661417322836
13.96,0.23622047244094488
13.966667,0.18110236220472442
13.973333,0.12598425196850394
13.98,0.06299212598425197
13.986667,0.0
13.993333,-0.05514886811023622
14.0,-0.1023929625984252
14.006667,-0.1181409940944882
14.013333,-0.12601500984251968
14.02,-0.1338890255905512
14.026667,-0.14176304133858267
14.033333,-0.14176304133858267
14.04,-0.14176304133858267
14.046667,-0.1338890255905512
14.053333,-0.1102669783464567
14.06,-0.08664493110236221
14.066667,-0.06302288385826772
14.073333,-0.047274852362204724
14.08,-0.03940083661417323
14.086667,-0.03152682086614173
14.093333,-0.03152682086614173
14.1,-0.047274852362204724
14.106667,-0.06302288385826772
14.113333,-0.0945189468503937
14.12,-0.1181409940944882
14.126667,-0.12601500984251968
14.133333,-0.1181409940944882
14.14,-0.1023929625984252
14.146667,-0.07877091535433071
14.153333,-0.06302288385826772
14.16,-0.047274852362204724
14.166667,-0.03152682086614173
14.173333,-0.03940083661417323
14.18,-0.047274852362204724
14.186667,-0.06302288385826772
14.193333,-0.07877091535433071
14.2,-0.08664493110236221
14.206667,-0.0945189468503937
14.213333,-0.0945189468503937
14.22,-0.07877091535433071
14.226667,-0.047274852362204724
14.233333,-0.023652805118110236
14.24,0.007843257874015748
14.246667,0.031496062992125984
14.253333,0.05511811023622047
14.26,0.06299212598425197
14.266667,0.05511811023622047
14.273333,0.03937007874015748
14.28,0.023622047244094488
14.286667,0.007874015748031496
14.293333,-0.007874015748031496
14.3,-0.01577878937007874
14.306667,-0.023652805118110236
14.313333,-0.01577878937007874
14.32,0.015717273622047244
14.326667,0.047244094488188976
14.333333,0.07874015748031496
14.34,0.10236220472440945
14.346667,0.11811023622047244
14.353333,0.13385826771653545
14.36,0.14960629921259844
14.366667,0.14960629921259844
14.373333,0.13385826771653545
14.38,0.10236220472440945
14.386667,0.06299212598425197
14.393333,0.031496062992125984
14.4,0.007874015748031496
14.406667,-0.015748031496062992
14.413333,-0.03940083661417323
14.42,-0.06302288385826772
14.426667,-0.07877091535433071
14.433333,-0.08664493110236221
14.44,-0.0945189468503937
14.446667,-0.07877091535433071
14.453333,0.551150344488189
14.46,-1.0
14.466667,-0.8582677165354331
14.473333,-0.8582677165354331
14.48,0.6850393700787402
14.486667,-0.2047244094488189
14.493333,-0.6299520177165354
14.5,-0.6299520177165354
14.506667,-0.606329970472441
14.513333,-0.4409756397637795
14.52,-0.21262918307086615
14.526667,-0.0945189468503937
14.533333,-0.05514886811023622
14.54,-0.03152682086614173
14.546667,0.007843257874015748
14.553333,0.07086614173228346
14.56,0.11811023622047244
14.566667,0.12598425196850394
14.573333,0.12598425196850394
14.58,0.11811023622047244
14.586667,0.10236220472440945
14.593333,0.10236220472440945
14.6,0.12598425196850394
14.606667,0.1732283464566929
14.613333,0.2125984251968504
14.62,0.2440944881889764
14.626667,0.2677165354330709
14.633333,0.28346456692913385
14.64,0.33070866141732286
14.646667,0.3858267716535433
14.653333,0.4330708661417323
14.66,0.4566929133858268
14.666667,0.4881889763779528
14.673333,0.5118110236220472
14.68,0.5433070866141733
14.686667,0.5669291338582677
14.693333,0.5748031496062992
14.7,0.5748031496062992
14.706667,0.5590551181102362
14.713333,0.5354330708661418
14.72,0.5118110236220472
14.726667,0.47244094488188976
14.733333,0.4330708661417323
14.74,0.3937007874015748
14.746667,0.33858267716535434
14.753333,0.29133858267716534
14.76,0.23622047244094488
14.766667,0.18110236220472442
14.773333,0.12598425196850394
14.78,0.07874015748031496
14.786667,0.023622047244094488
14.793333,-0.015748031496062992
14.8,-0.047274852362204724
14.806667,-0.07089689960629922
14.813333,-0.07877091535433071
14.82,-0.07089689960629922
14.826667,-0.07089689960629922
14.833333,-0.06302288385826772
14.84,-0.03940083661417323
14.846667,-0.01577878937007874
14.853333,0.015717273622047244
14.86,0.03937007874015748
14.866667,0.047244094488188976
14.873333,0.03937007874015748
14.88,0.031496062992125984
14.886667,0.031496062992125984
14.893333,0.015748031496062992
14.9,0.0
14.906667,-0.023652805118110236
14.913333,-0.047274852362204724
14.92,-0.06302288385826772
14.926667,-0.06302288385826772
14.933333,-0.06302288385826772
14.94,-0.06302288385826772
14.946667,-0.07089689960629922
14.953333,-0.07089689960629922
14.96,-0.07877091535433071
14.966667,-0.07877091535433071
14.973333,-0.08664493110236221
14.98,-0.08664493110236221
14.986667,-0.1023929625984252
14.993333,-0.1181409940944882
15.0,-0.14176304133858267
15.006667,-0.14963705708661418
15.013333,-0.14176304133858267
15.02,-0.1338890255905512
15.026667,-0.1181409940944882
15.033333,-0.1181409940944882
15.04,-0.1023929625984252
15.046667,-0.08664493110236221
15.053333,-0.06302288385826772
15.06,-0.05514886811023622
15.066667,-0.06302288385826772
15.073333,-0.07877091535433071
15.08,-0.1023929625984252
15.086667,-0.1102669783464567
15.093333,-0.1102669783464567
15.1,-0.0945189468503937
15.106667,-0.06302288385826772
15.113333,-0.01577878937007874
15.12,0.031465305118110236
15.126667,0.08661417322834646
15.133333,0.13385826771653545
15.14,0.1732283464566929
15.146667,0.2125984251968504
15.153333,0.2283464566929134
15.16,0.2283464566929134
15.166667,0.2047244094488189
15.173333,0.16535433070866143
15.18,0.12598425196850394
15.186667,0.09448818897637795
15.193333,0.07086614173228346
15.2,0.047244094488188976
15.206667,0.023622047244094488
15.213333,0.0
15.22,-0.023652805118110236
15.226667,-0.047274852362204724
15.233333,-0.21262918307086615
15.24,-0.1102669783464567
15.246667,0.36217396653543305
15.253333,0.9606299212598425
15.26,-0.8346456692913385
15.266667,-0.8346456692913385
15.273333,0.6929133858267716
15.28,-0.2204724409448819
15.286667,-0.6457000492125984
15.293333,-0.6457000492125984
15.3,-0.543337844488189
15.306667,-0.40160556102362205
15.313333,-0.3071173720472441
15.32,-0.3071173720472441
15.326667,-0.3071173720472441
15.333333,-0.22837721456692914
15.34,-0.1023929625984252
15.346667,-0.007904773622047244
15.353333,0.02359128937007874
15.36,0.031496062992125984
15.366667,0.03937007874015748
15.373333,0.07086614173228346
15.38,0.09448818897637795
15.386667,0.11023622047244094
15.393333,0.11811023622047244
15.4,0.12598425196850394
15.406667,0.12598425196850394
15.413333,0.13385826771653545
15.42,0.15748031496062992
15.426667,0.1732283464566929
15.433333,0.1889763779527559
15.44,0.2204724409448819
15.446667,0.2755905511811024
15.453333,0.3464566929133858
15.46,0.4094488188976378
15.466667,0.4645669291338583
15.473333,0.5039370078740157
15.48,0.5354330708661418
15.486667,0.5669291338582677
15.493333,0.5748031496062992
15.5,0.5590551181102362
15.506667,0.5275590551181102
15.513333,0.49606299212598426
15.52,0.4645669291338583
15.526667,0.4409448818897638
15.533333,0.4094488188976378
15.54,0.36220472440944884
15.546667,0.31496062992125984
15.553333,0.25196850393700787
15.56,0.1968503937007874
15.566667,0.14173228346456693
15.573333,0.08661417322834646
15.58,0.03937007874015748
15.586667,0.007874015748031496
15.593333,-0.015748031496062992
15.6,-0.03152682086614173
15.606667,-0.03940083661417323
15.613333,-0.05514886811023622
15.62,-0.07089689960629922
15.626667,-0.07089689960629922
15.633333,-0.07089689960629922
15.64,-0.07089689960629922
15.646667,-0.06302288385826772
15.653333,-0.06302288385826772
15.66,-0.05514886811023622
15.666667,-0.03940083661417323
15.673333,-0.03152682086614173
15.68,-0.01577878937007874
15.686667,-0.007904773622047244
15.693333,-0.007904773622047244
15.7,-0.007904773622047244
15.706667,-0.01577878937007874
15.713333,-0.01577878937007874
15.72,-0.01577878937007874
15.726667,-0.023652805118110236
15.733333,-0.03152682086614173
15.74,-0.05514886811023622
15.746667,-0.07089689960629922
15.753333,-0.08664493110236221
15.76,-0.08664493110236221
15.766667,-0.08664493110236221
15.773333,-0.0945189468503937
15.78,-0.1023929625984252
15.786667,-0.1102669783464567
15.793333,-0.0945189468503937
15.8,-0.07877091535433071
15.806667,-0.05514886811023622
15.813333,-0.03940083661417323
15.82,-0.03152682086614173
15.826667,-0.03152682086614173
15.833333,-0.023652805118110236
15.84,-0.01577878937007874
15.846667,-0.007904773622047244
15.853333,-0.007904773622047244
15.86,-0.023652805118110236
15.866667,-0.03152682086614173
15.873333,-0.03152682086614173
15.88,-0.023652805118110236
15.886667,-0.007904773622047244
15.893333,0.015717273622047244
15.9,0.03937007874015748
15.906667,0.06299212598425197
15.913333,0.09448818897637795
15.92,0.12598425196850394
15.926667,0.14960629921259844
15.933333,0.16535433070866143
15.94,0.16535433070866143
15.946667,0.14960629921259844
15.953333,0.12598425196850394
15.96,0.07874015748031496
15.966667,0.015748031496062992
15.973333,-0.047244094488188976
15.98,-0.0945189468503937
15.986667,-0.12601500984251968
15.993333,-0.14176304133858267
16.0,-0.07089689960629922
16.006667,-0.07089689960629922
16.013333,0.1417015255905512
16.02,0.6850393700787402
16.026667,-0.9133858267716536
16.033333,-0.905511811023622
16.04,-0.905511811023622
16.046667,0.5826771653543307
16.053333,-0.3464566929133858
16.06,-0.7638102854330708
16.066667,-0.7638102854330708
16.073333,-0.7008181594488189
16.08,-0.5039677657480315
16.086667,-0.2834953248031496
16.093333,-0.14963705708661418
16.1,-0.07089689960629922
16.106667,-0.03940083661417323
16.113333,-0.007904773622047244
16.12,0.031465305118110236
16.126667,0.07086614173228346
16.133333,0.10236220472440945
16.14,0.11023622047244094
16.146667,0.11023622047244094
16.153333,0.11811023622047244
16.16,0.11811023622047244
16.166667,0.11811023622047244
16.173333,0.12598425196850394
16.18,0.13385826771653545
16.186667,0.16535433070866143
16.193333,0.2047244094488189
16.2,0.2440944881889764
16.206667,0.28346456692913385
16.213333,0.3228346456692913
16.22,0.36220472440944884
16.226667,0.4094488188976378
16.233333,0.44881889763779526
16.24,0.47244094488188976
16.246667,0.4881889763779528
16.253333,0.5039370078740157
16.26,0.5275590551181102
16.266667,0.5433070866141733
16.273333,0.5590551181102362
16.28,0.5590551181102362
16.286667,0.5433070866141733
16.293333,0.5275590551181102
16.3,0.5118110236220472
16.306667,0.48031496062992124
16.313333,0.4330708661417323
16.32,0.3700787401574803
16.326667,0.31496062992125984
16.333333,0.25984251968503935
16.34,0.1968503937007874
16.346667,0.13385826771653545
16.353333,0.07086614173228346
16.36,0.023622047244094488
16.366667,-0.015748031496062992
16.373333,-0.03940083661417323
16.38,-0.06302288385826772
16.386667,-0.07877091535433071
16.393333,-0.07089689960629922
16.4,-0.05514886811023622
16.406667,-0.03940083661417323
16.413333,-0.03152682086614173
16.42,-0.03152682086614173
16.426667,-0.023652805118110236
16.433333,-0.023652805118110236
16.44,-0.007904773622047244
16.446667,-0.007904773622047244
16.453333,-0.007904773622047244
16.46,-0.01577878937007874
16.466667,-0.023652805118110236
16.473333,-0.03152682086614173
16.48,-0.03152682086614173
16.486667,-0.023652805118110236
16.493333,-0.023652805118110236
16.5,-0.023652805118110236
16.506667,-0.01577878937007874
16.513333,-0.007904773622047244
16.52,-3.075787401574803e-05
16.526667,0.007843257874015748
16.533333,0.007874015748031496
16.54,0.0
16.546667,-0.007904773622047244
16.553333,-0.023652805118110236
16.56,-0.047274852362204724
16.566667,-0.07089689960629922
16.573333,-0.0945189468503937
16.58,-0.0945189468503937
16.586667,-0.08664493110236221
16.593333,-0.07877091535433071
16.6,-0.06302288385826772
16.606667,-0.047274852362204724
16.613333,-0.023652805118110236
16.62,-3.075787401574803e-05
16.626667,0.02359128937007874
16.633333,0.03937007874015748
16.64,0.031496062992125984
16.646667,0.031496062992125984
16.653333,0.031496062992125984
16.66,0.03937007874015748
16.666667,0.03937007874015748
16.673333,0.03937007874015748
16.68,0.023622047244094488
16.686667,0.015748031496062992
16.693333,0.015748031496062992
16.7,0.007874015748031496
16.706667,0.0
16.713333,-0.007904773622047244
16.72,-0.007904773622047244
16.726667,-0.007904773622047244
16.733333,-0.007904773622047244
16.74,-0.01577878937007874
16.746667,-0.03152682086614173
16.753333,-0.03940083661417323
16.76,0.13382750984251968
16.766667,0.7716535433070866
16.773333,-0.8818897637795275
16.78,-0.8818897637795275
16.786667,0.9763779527559056
16.793333,0.4330708661417323
16.8,-0.2677165354330709
16.806667,-0.6142039862204725
16.813333,-0.6614480807086615
16.82,-0.6614480807086615
16.826667,-0.5197157972440944
16.833333,-0.26774729330708663
16.84,-0.08664493110236221
16.846667,-0.01577878937007874
16.853333,-3.075787401574803e-05
16.86,0.007843257874015748
16.866667,0.03937007874015748
16.873333,0.09448818897637795
16.88,0.14173228346456693
16.886667,0.14960629921259844
16.893333,0.14960629921259844
16.9,0.13385826771653545
16.906667,0.11023622047244094
16.913333,0.10236220472440945
16.92,0.10236220472440945
16.926667,0.11811023622047244
16.933333,0.14173228346456693
16.94,0.16535433070866143
16.946667,0.1968503937007874
16.953333,0.2283464566929134
16.96,0.2677165354330709
16.966667,0.31496062992125984
16.973333,0.3700787401574803
16.98,0.4251968503937008
16.986667,0.4645669291338583
16.993333,0.4881889763779528
17.0,0.5039370078740157
17.006667,0.5118110236220472
17.013333,0.5118110236220472
17.02,0.5118110236220472
17.026667,0.49606299212598426
17.033333,0.47244094488188976
17.04,0.4330708661417323
17.046667,0.3858267716535433
17.053333,0.33070866141732286
17.06,0.28346456692913385
17.066667,0.23622047244094488
17.073333,0.1732283464566929
17.08,0.10236220472440945
17.086667,0.031496062992125984
17.093333,-0.031496062992125984
17.1,-0.06302288385826772
17.106667,-0.07877091535433071
17.113333,-0.08664493110236221
17.12,-0.07877091535433071
17.126667,-0.06302288385826772
17.133333,-0.03940083661417323
17.14,-0.007904773622047244
17.146667,0.02359128937007874
17.153333,0.03937007874015748
17.16,0.047244094488188976
17.166667,0.047244094488188976
17.173333,0.031496062992125984
17.18,0.015748031496062992
17.186667,0.007874015748031496
17.193333,-0.007874015748031496
17.2,-0.007904773622047244
17.206667,-0.007904773622047244
17.213333,-0.01577878937007874
17.22,-0.023652805118110236
17.226667,-0.023652805118110236
17.233333,-0.023652805118110236
17.24,-0.023652805118110236
17.246667,-0.023652805118110236
17.253333,-0.03152682086614173
17.26,-0.03152682086614173
17.266667,-0.03152682086614173
17.273333,-0.03152682086614173
17.28,-0.03152682086614173
17.286667,-0.03152682086614173
17.293333,-0.03940083661417323
17.3,-0.047274852362204724
17.306667,-0.05514886811023622
17.313333,-0.05514886811023622
17.32,-0.05514886811023622
17.326667,-0.06302288385826772
17.333333,-0.05514886811023622
17.34,-0.047274852362204724
17.346667,-0.03940083661417323
17.353333,-0.03152682086614173
17.36,-0.023652805118110236
17.366667,-0.01577878937007874
17.373333,-0.007904773622047244
17.38,0.015717273622047244
17.386667,0.03937007874015748
17.393333,0.06299212598425197
17.4,0.07874015748031496
17.406667,0.10236220472440945
17.413333,0.11811023622047244
17.42,0.13385826771653545
17.426667,0.14173228346456693
17.433333,0.13385826771653545
17.44,0.11023622047244094
17.446667,0.07086614173228346
17.453333,0.03937007874015748
17.46,0.015748031496062992
17.466667,-0.007874015748031496
17.473333,-0.023652805118110236
17.48,-0.047274852362204724
17.486667,-0.07089689960629922
17.493333,-0.08664493110236221
17.5,0.08658341535433071
17.506667,0.7086614173228346
17.513333,-0.9212598425196851
17.52,-0.9212598425196851
17.526667,1.0
17.533333,0.4566929133858268
17.54,-0.36220472440944884
17.546667,-0.7323142224409449
17.553333,-0.7323142224409449
17.56,-0.6850701279527559
17.566667,-0.4724717027559055
17.573333,-0.20475516732283464
17.58,-0.1102669783464567
17.586667,-0.1102669783464567
17.593333,-0.12601500984251968
17.6,-0.14963705708661418
17.606667,-0.17325910433070865
17.613333,-0.17325910433070865
17.62,-0.12601500984251968
17.626667,-0.047274852362204724
17.633333,-3.075787401574803e-05
17.64,-3.075787401574803e-05
17.646667,-3.075787401574803e-05
17.653333,-3.075787401574803e-05
17.66,0.015717273622047244
17.666667,0.047244094488188976
17.673333,0.07874015748031496
17.68,0.10236220472440945
17.686667,0.14173228346456693
17.693333,0.1732283464566929
17.7,0.2047244094488189
17.706667,0.2440944881889764
17.713333,0.2755905511811024
17.72,0.2992125984251969
17.726667,0.30708661417322836
17.733333,0.31496062992125984
17.74,0.31496062992125984
17.746667,0.31496062992125984
17.753333,0.31496062992125984
17.76,0.3228346456692913
17.766667,0.3228346456692913
17.773333,0.3228346456692913
17.78,0.31496062992125984
17.786667,0.2992125984251969
17.793333,0.29133858267716534
17.8,0.2677165354330709
17.806667,0.2283464566929134
17.813333,0.16535433070866143
17.82,0.11023622047244094
17.826667,0.05511811023622047
17.833333,0.007874015748031496
17.84,-0.023622047244094488
17.846667,-0.05514886811023622
17.853333,-0.07877091535433071
17.86,-0.07877091535433071
17.866667,-0.07089689960629922
17.873333,-0.06302288385826772
17.88,-0.05514886811023622
17.886667,-0.05514886811023622
17.893333,-0.06302288385826772
17.9,-0.07877091535433071
17.906667,-0.0945189468503937
17.913333,-0.1102669783464567
17.92,-0.1102669783464567
17.926667,-0.1102669783464567
17.933333,-0.1023929625984252
17.94,-0.1023929625984252
17.946667,-0.1023929625984252
17.953333,-0.1023929625984252
17.96,-0.0945189468503937
17.966667,-0.08664493110236221
17.973333,-0.07877091535433071
17.98,-0.07877091535433071
17.986667,-0.08664493110236221
17.993333,-0.0945189468503937
18.0,-0.1023929625984252
18.006667,-0.1023929625984252
18.013333,-0.0945189468503937
18.02,-0.08664493110236221
18.026667,-0.08664493110236221
18.033333,-0.08664493110236221
18.04,-0.08664493110236221
18.046667,-0.07089689960629922
18.053333,-0.05514886811023622
18.06,-0.03940083661417323
18.066667,-0.03152682086614173
18.073333,-0.03940083661417323
18.08,-0.047274852362204724
18.086667,-0.047274852362204724
18.093333,-0.05514886811023622
18.1,-0.05514886811023622
18.106667,-0.05514886811023622
18.113333,-0.03940083661417323
18.12,-0.007904773622047244
18.126667,0.031465305118110236
18.133333,0.07086614173228346
18.14,0.11023622047244094
18.146667,0.13385826771653545
18.153333,0.15748031496062992
18.16,0.16535433070866143
18.166667,0.16535433070866143
18.173333,0.13385826771653545
18.18,0.08661417322834646
18.186667,0.047244094488188976
18.193333,0.015748031496062992
18.2,0.007874015748031496
18.206667,0.015748031496062992
18.213333,0.023622047244094488
18.22,0.023622047244094488
18.226667,0.015748031496062992
18.233333,0.023622047244094488
18.24,0.2047244094488189
18.246667,0.8661417322834646
18.253333,-0.7480314960629921
18.26,-0.7480314960629921
18.266667,-0.984251968503937
18.273333,0.2992125984251969
18.28,-0.48031496062992124
18.286667,-0.7716843011811023
18.293333,-0.7716843011811023
18.3,-0.5669598917322834
18.306667,-0.22837721456692914
18.313333,-0.08664493110236221
18.32,-0.08664493110236221
18.326667,-0.0945189468503937
18.333333,-0.0945189468503937
18.34,-0.07877091535433071
18.346667,-0.03152682086614173
18.353333,0.04721333661417323
18.36,0.08661417322834646
18.366667,0.09448818897637795
18.373333,0.09448818897637795
18.38,0.09448818897637795
18.386667,0.10236220472440945
18.393333,0.11811023622047244
18.4,0.14173228346456693
18.406667,0.16535433070866143
18.413333,0.18110236220472442
18.42,0.1968503937007874
18.426667,0.23622047244094488
18.433333,0.2755905511811024
18.44,0.3228346456692913
18.446667,0.36220472440944884
18.453333,0.3858267716535433
18.46,0.4094488188976378
18.466667,0.4330708661417323
18.473333,0.4566929133858268
18.48,0.4645669291338583
18.486667,0.4645669291338583
18.493333,0.4566929133858268
18.5,0.44881889763779526
18.506667,0.4330708661417323
18.513333,0.41732283464566927
18.52,0.3937007874015748
18.526667,0.36220472440944884
18.533333,0.33070866141732286
18.54,0.29133858267716534
18.546667,0.2440944881889764
18.553333,0.18110236220472442
18.56,0.11023622047244094
18.566667,0.047244094488188976
18.573333,-0.007874015748031496
18.58,-0.06302288385826772
18.586667,-0.1102669783464567
18.593333,-0.14963705708661418
18.6,-0.17325910433070865
18.606667,-0.17325910433070865
18.613333,-0.15751107283464566
18.62,-0.14963705708661418
18.626667,-0.1338890255905512
18.633333,-0.1181409940944882
18.64,-0.0945189468503937
18.646667,-0.08664493110236221
18.653333,-0.08664493110236221
18.66,-0.0945189468503937
18.666667,-0.1102669783464567
18.673333,-0.12601500984251968
18.68,-0.1338890255905512
18.686667,-0.14176304133858267
18.693333,-0.15751107283464566
18.7,-0.16538508858267717
18.706667,-0.17325910433070865
18.713333,-0.17325910433070865
18.72,-0.16538508858267717
18.726667,-0.14963705708661418
18.733333,-0.14176304133858267
18.74,-0.1338890255905512
18.746667,-0.1338890255905512
18.753333,-0.14176304133858267
18.76,-0.1338890255905512
18.766667,-0.1338890255905512
18.773333,-0.14176304133858267
18.78,-0.15751107283464566
18.786667,-0.16538508858267717
18.793333,-0.17325910433070865
18.8,-0.17325910433070865
18.806667,-0.15751107283464566
18.813333,-0.14176304133858267
18.82,-0.12601500984251968
18.826667,-0.1023929625984252
18.833333,-0.07877091535433071
18.84,-0.06302288385826772
18.846667,-0.047274852362204724
18.853333,-0.03152682086614173
18.86,-0.01577878937007874
18.866667,-3.075787401574803e-05
18.873333,0.015717273622047244
18.88,0.023622047244094488
18.886667,0.03937007874015748
18.893333,0.06299212598425197
18.9,0.08661417322834646
18.906667,0.11023622047244094
18.913333,0.12598425196850394
18.92,0.13385826771653545
18.926667,0.12598425196850394
18.933333,0.12598425196850394
18.94,0.11811023622047244
18.946667,0.10236220472440945
18.953333,0.07086614173228346
18.96,0.03937007874015748
18.966667,0.0
18.973333,-0.03152682086614173
18.98,-0.05514886811023622
18.986667,-0.07089689960629922
18.993333,0.23618971456692914
19.0,0.7874015748031497
19.006667,-0.905511811023622
19.013333,-0.905511811023622
19.02,1.0
19.026667,0.4015748031496063
19.033333,-0.30708661417322836
19.04,-0.527589812992126
19.046667,-0.527589812992126
19.053333,-0.32286540354330706
19.06,-0.12601500984251968
19.066667,-0.07877091535433071
19.073333,-0.07089689960629922
19.08,-0.047274852362204724
19.086667,0.015717273622047244
19.093333,0.07086614173228346
19.1,0.07086614173228346
19.106667,0.06299212598425197
19.113333,0.06299212598425197
19.12,0.07874015748031496
19.126667,0.15748031496062992
19.133333,0.1889763779527559
19.14,0.2047244094488189
19.146667,0.2125984251968504
19.153333,0.2204724409448819
19.16,0.2283464566929134
19.166667,0.23622047244094488
19.173333,0.25196850393700787
19.18,0.2755905511811024
19.186667,0.29133858267716534
19.193333,0.30708661417322836
19.2,0.3228346456692913
19.206667,0.3464566929133858
19.213333,0.3779527559055118
19.22,0.4094488188976378
19.226667,0.4330708661417323
19.233333,0.4566929133858268
19.24,0.4645669291338583
19.246667,0.47244094488188976
19.253333,0.4645669291338583
19.26,0.44881889763779526
19.266667,0.4251968503937008
19.273333,0.3937007874015748
19.28,0.36220472440944884
19.286667,0.31496062992125984
19.293333,0.2677165354330709
19.3,0.2204724409448819
19.306667,0.18110236220472442
19.313333,0.13385826771653545
19.32,0.07874015748031496
19.326667,0.031496062992125984
19.333333,-0.015748031496062992
19.34,-0.047274852362204724
19.346667,-0.07877091535433071
19.353333,-0.08664493110236221
19.36,-0.08664493110236221
19.366667,-0.07089689960629922
19.373333,-0.05514886811023622
19.38,-0.03152682086614173
19.386667,-3.075787401574803e-05
19.393333,0.02359128937007874
19.4,0.047244094488188976
19.406667,0.047244094488188976
19.413333,0.047244094488188976
19.42,0.031496062992125984
19.426667,0.031496062992125984
19.433333,0.031496062992125984
19.44,0.023622047244094488
19.446667,0.015748031496062992
19.453333,0.0
19.46,-0.007904773622047244
19.466667,-0.01577878937007874
19.473333,-0.007904773622047244
19.48,-0.007904773622047244
19.486667,-0.007904773622047244
19.493333,-0.007904773622047244
19.5,-0.01577878937007874
19.506667,-0.01577878937007874
19.513333,-0.007904773622047244
19.52,-0.007904773622047244
19.526667,-0.007904773622047244
19.533333,-0.023652805118110236
19.54,-0.047274852362204724
19.546667,-0.06302288385826772
19.553333,-0.07877091535433071
19.56,-0.08664493110236221
19.566667,-0.0945189468503937
19.573333,-0.1023929625984252
19.58,-0.0945189468503937
19.586667,-0.07877091535433071
19.593333,-0.05514886811023622
19.6,-0.03152682086614173
19.606667,-0.007904773622047244
19.613333,0.007843257874015748
19.62,0.015748031496062992
19.626667,0.023622047244094488
19.633333,0.031496062992125984
19.64,0.023622047244094488
19.646667,0.023622047244094488
19.653333,0.015748031496062992
19.66,0.007874015748031496
19.666667,0.023622047244094488
19.673333,0.03937007874015748
19.68,0.05511811023622047
19.686667,0.06299212598425197
19.693333,0.05511811023622047
19.7,0.047244094488188976
19.706667,0.031496062992125984
19.713333,0.023622047244094488
19.72,0.0
19.726667,-0.023652805118110236
19.733333,-0.06302288385826772
19.74,-0.0945189468503937
19.746667,-0.1181409940944882
19.753333,-0.1338890255905512
19.76,-0.18900713582677164
19.766667,-0.01577878937007874
19.773333,0.472410187007874
19.78,0.9921259842519685
19.786667,-0.8188976377952756
19.793333,-0.8188976377952756
19.8,0.7244094488188977
19.806667,-0.16535433070866143
19.813333,-0.590581938976378
19.82,-0.590581938976378
19.826667,-0.5748339074803149
19.833333,-0.4724717027559055
19.84,-0.3307394192913386
19.846667,-0.22837721456692914
19.853333,-0.1023929625984252
19.86,0.03933932086614173
19.866667,0.10236220472440945
19.873333,0.10236220472440945
19.88,0.11023622047244094
19.886667,0.11023622047244094
19.893333,0.14960629921259844
19.9,0.16535433070866143
19.906667,0.1732283464566929
19.913333,0.1732283464566929
19.92,0.16535433070866143
19.926667,0.16535433070866143
19.933333,0.16535433070866143
19.94,0.16535433070866143
19.946667,0.18110236220472442
19.953333,0.2047244094488189
19.96,0.2440944881889764
19.966667,0.29133858267716534
19.973333,0.33858267716535434
19.98,0.3858267716535433
19.986667,0.4409448818897638
19.993333,0.4881889763779528
20.0,0.5275590551181102
20.006667,0.5511811023622047
20.013333,0.5669291338582677
20.02,0.5748031496062992
20.026667,0.5826771653543307
20.033333,0.5748031496062992
20.04,0.5511811023622047
20.046667,0.5196850393700787
20.053333,0.4881889763779528
20.06,0.44881889763779526
20.066667,0.3937007874015748
20.073333,0.3228346456692913
20.08,0.25196850393700787
20.086667,0.18110236220472442
20.093333,0.12598425196850394
20.1,0.07086614173228346
20.106667,0.007874015748031496
20.113333,-0.047244094488188976
20.12,-0.08664493110236221
20.126667,-0.1023929625984252
20.133333,-0.1023929625984252
20.14,-0.1023929625984252
20.146667,-0.0945189468503937
20.153333,-0.08664493110236221
20.16,-0.08664493110236221
20.166667,-0.0945189468503937
20.173333,-0.1023929625984252
20.18,-0.1181409940944882
20.186667,-0.1338890255905512
20.193333,-0.14176304133858267
20.2,-0.14963705708661418
20.206667,-0.14963705708661418
20.213333,-0.14176304133858267
20.22,-0.12601500984251968
20.226667,-0.1023929625984252
20.233333,-0.08664493110236221
20.24,-0.08664493110236221
20.246667,-0.0945189468503937
20.253333,-0.1023929625984252
20.26,-0.0945189468503937
20.266667,-0.0945189468503937
20.273333,-0.08664493110236221
20.28,-0.07877091535433071
20.286667,-0.07877091535433071
20.293333,-0.06302288385826772
20.3,-0.05514886811023622
20.306667,-0.047274852362204724
20.313333,-0.05514886811023622
20.32,-0.06302288385826772
20.326667,-0.07089689960629922
20.333333,-0.07089689960629922
20.34,-0.07089689960629922
20.346667,-0.07089689960629922
20.353333,-0.07089689960629922
20.36,-0.07089689960629922
20.366667,-0.06302288385826772
20.373333,-0.05514886811023622
20.38,-0.03940083661417323
20.386667,-0.023652805118110236
20.393333,-0.007904773622047244
20.4,0.007843257874015748
20.406667,0.023622047244094488
20.413333,0.03937007874015748
20.42,0.06299212598425197
20.426667,0.07874015748031496
20.433333,0.08661417322834646
20.44,0.09448818897637795
20.446667,0.10236220472440945
20.453333,0.11023622047244094
20.46,0.11811023622047244
20.466667,0.11811023622047244
20.473333,0.11811023622047244
20.48,0.09448818897637795
20.486667,0.07874015748031496
20.493333,0.05511811023622047
20.5,0.03937007874015748
20.506667,0.023622047244094488
20.513333,0.007874015748031496
20.52,-0.007874015748031496
20.526667,-0.023652805118110236
20.533333,-0.047274852362204724
20.54,-0.06302288385826772
20.546667,-0.07877091535433071
20.553333,-0.06302288385826772
20.56,0.6692605807086615
20.566667,-0.9921259842519685
20.573333,-0.9921259842519685
20.58,0.905511811023622
20.586667,0.33858267716535434
20.593333,-0.41732283464566927
20.6,-0.7244402066929134
20.606667,-0.7244402066929134
20.613333,-0.5984559547244095
20.62,-0.40947957677165353
20.626667,-0.2834953248031496
20.633333,-0.20475516732283464
20.64,-0.14963705708661418
20.646667,-0.1181409940944882
20.653333,-0.08664493110236221
20.66,-0.03152682086614173
20.666667,0.02359128937007874
20.673333,0.05511811023622047
20.68,0.05511811023622047
20.686667,0.05511811023622047
20.693333,0.05511811023622047
20.7,0.09448818897637795
20.706667,0.13385826771653545
20.713333,0.15748031496062992
20.72,0.1732283464566929
20.726667,0.18110236220472442
20.733333,0.2047244094488189
20.74,0.2204724409448819
20.746667,0.25984251968503935
20.753333,0.28346456692913385
20.76,0.2992125984251969
20.766667,0.3228346456692913
20.773333,0.3464566929133858
20.78,0.3779527559055118
20.786667,0.4094488188976378
20.793333,0.4330708661417323
20.8,0.4566929133858268
20.806667,0.4881889763779528
20.813333,0.5118110236220472
20.82,0.5196850393700787
20.826667,0.5118110236220472
20.833333,0.4881889763779528
20.84,0.4409448818897638
20.846667,0.3779527559055118
20.853333,0.30708661417322836
20.86,0.23622047244094488
20.866667,0.16535433070866143
20.873333,0.10236220472440945
20.88,0.047244094488188976
20.886667,0.007874015748031496
20.893333,-0.015748031496062992
20.9,-0.023652805118110236
20.906667,-0.023652805118110236
20.913333,-0.03152682086614173
20.92,-0.03152682086614173
20.926667,-0.03940083661417323
20.933333,-0.047274852362204724
20.94,-0.03940083661417323
20.946667,-0.03152682086614173
20.953333,-0.03152682086614173
20.96,-0.03152682086614173
20.966667,-0.03152682086614173
20.973333,-0.03152682086614173
20.98,-0.01577878937007874
20.986667,-0.007904773622047244
20.993333,-3.075787401574803e-05
21.0,-3.075787401574803e-05
21.006667,-0.007904773622047244
21.013333,-0.01577878937007874
21.02,-0.03152682086614173
21.026667,-0.03940083661417323
21.033333,-0.047274852362204724
21.04,-0.06302288385826772
21.046667,-0.07877091535433071
21.053333,-0.08664493110236221
21.06,-0.08664493110236221
21.066667,-0.07877091535433071
21.073333,-0.06302288385826772
21.08,-0.05514886811023622
21.086667,-0.06302288385826772
21.093333,-0.06302288385826772
21.1,-0.07089689960629922
21.106667,-0.07877091535433071
21.113333,-0.08664493110236221
21.12,-0.0945189468503937
21.126667,-0.1102669783464567
21.133333,-0.1181409940944882
21.14,-0.1102669783464567
21.146667,-0.0945189468503937
21.153333,-0.07877091535433071
21.16,-0.05514886811023622
21.166667,-0.03940083661417323
21.173333,-0.03152682086614173
21.18,-0.023652805118110236
21.186667,-0.01577878937007874
21.193333,-0.01577878937007874
21.2,-0.01577878937007874
21.206667,-0.01577878937007874
21.213333,-0.01577878937007874
21.22,-0.007904773622047244
21.226667,0.015717273622047244
21.233333,0.05511811023622047
21.24,0.11023622047244094
21.246667,0.15748031496062992
21.253333,0.1968503937007874
21.26,0.2204724409448819
21.266667,0.2283464566929134
21.273333,0.2125984251968504
21.28,0.18110236220472442
21.286667,0.14173228346456693
21.293333,0.09448818897637795
21.3,0.05511811023622047
21.306667,0.015748031496062992
21.313333,-0.015748031496062992
21.32,-0.007904773622047244
21.326667,-0.007904773622047244
21.333333,0.15744955708661418
21.34,0.6692913385826772
21.346667,-0.7322834645669292
21.353333,-0.4645669291338583
21.36,-0.4645669291338583
21.366667,-0.952755905511811
21.373333,0.09448818897637795
21.38,-0.5826771653543307
21.386667,-0.7795583169291339
21.393333,-0.7795583169291339
21.4,-0.6378260334645669
21.406667,-0.39373154527559057
21.413333,-0.21262918307086615
21.42,-0.1023929625984252
21.426667,-0.05514886811023622
21.433333,-0.023652805118110236
21.44,0.015717273622047244
21.446667,0.06299212598425197
21.453333,0.09448818897637795
21.46,0.09448818897637795
21.466667,0.09448818897637795
21.473333,0.10236220472440945
21.48,0.11023622047244094
21.486667,0.12598425196850394
21.493333,0.13385826771653545
21.5,0.14173228346456693
21.506667,0.16535433070866143
21.513333,0.1889763779527559
21.52,0.2283464566929134
21.526667,0.2677165354330709
21.533333,0.31496062992125984
21.54,0.3543307086614173
21.546667,0.3937007874015748
21.553333,0.4409448818897638
21.56,0.48031496062992124
21.566667,0.5118110236220472
21.573333,0.5275590551181102
21.58,0.5275590551181102
21.586667,0.5196850393700787
21.593333,0.5039370078740157
21.6,0.4881889763779528
21.606667,0.48031496062992124
21.613333,0.4645669291338583
21.62,0.44881889763779526
21.626667,0.4251968503937008
21.633333,0.4015748031496063
21.64,0.36220472440944884
21.646667,0.3228346456692913
21.653333,0.25984251968503935
21.66,0.18110236220472442
21.666667,0.11023622047244094
21.673333,0.05511811023622047
21.68,0.007874015748031496
21.686667,-0.023622047244094488
21.693333,-0.047274852362204724
21.7,-0.06302288385826772
21.706667,-0.07089689960629922
21.713333,-0.07089689960629922
21.72,-0.06302288385826772
21.726667,-0.07089689960629922
21.733333,-0.07877091535433071
21.74,-0.0945189468503937
21.746667,-0.08664493110236221
21.753333,-0.07877091535433071
21.76,-0.07089689960629922
21.766667,-0.06302288385826772
21.773333,-0.05514886811023622
21.78,-0.047274852362204724
21.786667,-0.03940083661417323
21.793333,-0.03940083661417323
21.8,-0.03940083661417323
21.806667,-0.05514886811023622
21.813333,-0.07089689960629922
21.82,-0.08664493110236221
21.826667,-0.08664493110236221
21.833333,-0.08664493110236221
21.84,-0.07877091535433071
21.846667,-0.07877091535433071
21.853333,-0.07089689960629922
21.86,-0.05514886811023622
21.866667,-0.047274852362204724
21.873333,-0.03152682086614173
21.88,-0.03152682086614173
21.886667,-0.03940083661417323
21.893333,-0.05514886811023622
21.9,-0.06302288385826772
21.906667,-0.07089689960629922
21.913333,-0.07089689960629922
21.92,-0.06302288385826772
21.926667,-0.047274852362204724
21.933333,-0.03152682086614173
21.94,-0.01577878937007874
21.946667,-0.007904773622047244
21.953333,-3.075787401574803e-05
21.96,-3.075787401574803e-05
21.966667,0.007843257874015748
21.973333,0.015748031496062992
21.98,0.031496062992125984
21.986667,0.03937007874015748
21.993333,0.047244094488188976
22.0,0.07086614173228346
22.006667,0.09448818897637795
22.013333,0.12598425196850394
22.02,0.14960629921259844
22.026667,0.15748031496062992
22.033333,0.15748031496062992
22.04,0.15748031496062992
22.046667,0.14960629921259844
22.053333,0.12598425196850394
22.06,0.08661417322834646
22.066667,0.031496062992125984
22.073333,-0.015748031496062992
22.08,-0.06302288385826772
22.086667,-0.0945189468503937
22.093333,-0.1181409940944882
22.1,-0.14963705708661418
22.106667,-0.15751107283464566
22.113333,0.07870939960629922
22.12,0.6929133858267716
22.126667,-0.9291338582677166
22.133333,-0.9291338582677166
22.14,-0.9921259842519685
22.146667,0.48031496062992124
22.153333,-0.3858267716535433
22.16,-0.7716843011811023
22.166667,-0.7716843011811023
22.173333,-0.7008181594488189
22.18,-0.49609375
22.186667,-0.2756213090551181
22.193333,-0.16538508858267717
22.2,-0.12601500984251968
22.206667,-0.12601500984251968
22.213333,-0.12601500984251968
22.22,-0.0945189468503937
22.226667,-0.03940083661417323
22.233333,0.015717273622047244
22.24,0.031496062992125984
22.246667,0.047244094488188976
22.253333,0.06299212598425197
22.26,0.09448818897637795
22.266667,0.12598425196850394
22.273333,0.14173228346456693
22.28,0.15748031496062992
22.286667,0.16535433070866143
22.293333,0.1732283464566929
22.3,0.1889763779527559
22.306667,0.2047244094488189
22.313333,0.2125984251968504
22.32,0.23622047244094488
22.326667,0.2677165354330709
22.333333,0.30708661417322836
22.34,0.33858267716535434
22.346667,0.3858267716535433
22.353333,0.4330708661417323
22.36,0.4881889763779528
22.366667,0.5275590551181102
22.373333,0.5354330708661418
22.38,0.5275590551181102
22.386667,0.49606299212598426
22.393333,0.4566929133858268
22.4,0.4094488188976378
22.406667,0.3464566929133858
22.413333,0.28346456692913385
22.42,0.2204724409448819
22.426667,0.15748031496062992
22.433333,0.10236220472440945
22.44,0.06299212598425197
22.446667,0.03937007874015748
22.453333,0.023622047244094488
22.46,0.007874015748031496
22.466667,0.0
22.473333,-3.075787401574803e-05
22.48,-3.075787401574803e-05
22.486667,-3.075787401574803e-05
22.493333,0.007843257874015748
22.5,0.0
22.506667,-0.01577878937007874
22.513333,-0.03152682086614173
22.52,-0.047274852362204724
22.526667,-0.047274852362204724
22.533333,-0.03940083661417323
22.54,-0.03940083661417323
22.546667,-0.023652805118110236
22.553333,-0.01577878937007874
22.56,-3.075787401574803e-05
22.566667,-3.075787401574803e-05
22.573333,-0.007904773622047244
22.58,-0.01577878937007874
22.586667,-0.023652805118110236
22.593333,-0.023652805118110236
22.6,-0.03152682086614173
22.606667,-0.03940083661417323
22.613333,-0.047274852362204724
22.62,-0.06302288385826772
22.626667,-0.07089689960629922
22.633333,-0.07089689960629922
22.64,-0.05514886811023622
22.646667,-0.047274852362204724
22.653333,-0.03152682086614173
22.66,-0.03152682086614173
22.666667,-0.023652805118110236
22.673333,-0.01577878937007874
22.68,0.007843257874015748
22.686667,0.023622047244094488
22.693333,0.023622047244094488
22.7,0.015748031496062992
22.706667,0.0
22.713333,-0.007904773622047244
22.72,-0.007904773622047244
22.726667,-3.075787401574803e-05
22.733333,-3.075787401574803e-05
22.74,-0.007904773622047244
22.746667,-0.007904773622047244
22.753333,0.007843257874015748
22.76,0.031496062992125984
22.766667,0.047244094488188976
22.773333,0.06299212598425197
22.78,0.07086614173228346
22.786667,0.08661417322834646
22.793333,0.10236220472440945
22.8,0.10236220472440945
22.806667,0.09448818897637795
22.813333,0.06299212598425197
22.82,0.047244094488188976
22.826667,0.031496062992125984
22.833333,0.023622047244094488
22.84,0.015748031496062992
22.846667,0.0
22.853333,-0.03152682086614173
22.86,-0.05514886811023622
22.866667,-0.07089689960629922
22.873333,-0.0945189468503937
22.88,-0.1023929625984252
22.886667,0.36217396653543305
22.893333,0.9212598425196851
22.9,-0.8503937007874016
22.906667,-0.8503937007874016
22.913333,0.7165354330708661
22.92,-0.16535433070866143
22.926667,-0.5984559547244095
22.933333,-0.5984559547244095
22.94,-0.590581938976378
22.946667,-0.417353592519685
22.953333,-0.18113312007874016
22.96,-0.1102669783464567
22.966667,-0.1102669783464567
22.973333,-0.15751107283464566
22.98,-0.20475516732283464
22.986667,-0.20475516732283464
22.993333,-0.14963705708661418
23.0,-0.047274852362204724
23.006667,0.07083538385826772
23.013333,0.16535433070866143
23.02,0.2125984251968504
23.026667,0.2125984251968504
23.033333,0.2125984251968504
23.04,0.2125984251968504
23.046667,0.2125984251968504
23.053333,0.2204724409448819
23.06,0.23622047244094488
23.066667,0.2440944881889764
23.073333,0.2677165354330709
23.08,0.2992125984251969
23.086667,0.33070866141732286
23.093333,0.36220472440944884
23.1,0.3937007874015748
23.106667,0.4251968503937008
23.113333,0.4566929133858268
23.12,0.4881889763779528
23.126667,0.5039370078740157
23.133333,0.5039370078740157
23.14,0.5118110236220472
23.146667,0.5118110236220472
23.153333,0.5118110236220472
23.16,0.5039370078740157
23.166667,0.48031496062992124
23.173333,0.4409448818897638
23.18,0.4015748031496063
23.186667,0.3543307086614173
23.193333,0.2992125984251969
23.2,0.2283464566929134
23.206667,0.13385826771653545
23.213333,0.05511811023622047
23.22,-0.015748031496062992
23.226667,-0.06302288385826772
23.233333,-0.1102669783464567
23.24,-0.14176304133858267
23.246667,-0.16538508858267717
23.253333,-0.16538508858267717
23.26,-0.14963705708661418
23.266667,-0.1338890255905512
23.273333,-0.1181409940944882
23.28,-0.1102669783464567
23.286667,-0.1181409940944882
23.293333,-0.1181409940944882
23.3,-0.12601500984251968
23.306667,-0.1338890255905512
23.313333,-0.14176304133858267
23.32,-0.15751107283464566
23.326667,-0.17325910433070865
23.333333,-0.18900713582677164
23.34,-0.18113312007874016
23.346667,-0.16538508858267717
23.353333,-0.14963705708661418
23.36,-0.12601500984251968
23.366667,-0.1102669783464567
23.373333,-0.1023929625984252
23.38,-0.1023929625984252
23.386667,-0.1102669783464567
23.393333,-0.1181409940944882
23.4,-0.14176304133858267
23.406667,-0.16538508858267717
23.413333,-0.18113312007874016
23.42,-0.18900713582677164
23.426667,-0.18900713582677164
23.433333,-0.18113312007874016
23.44,-0.14963705708661418
23.446667,-0.1181409940944882
23.453333,-0.08664493110236221
23.46,-0.06302288385826772
23.466667,-0.047274852362204724
23.473333,-0.03940083661417323
23.48,-0.03940083661417323
23.486667,-0.03940083661417323
23.493333,-0.03940083661417323
23.5,-0.03152682086614173
23.506667,-0.03152682086614173
23.513333,-0.023652805118110236
23.52,-0.007904773622047244
23.526667,0.015717273622047244
23.533333,0.05511811023622047
23.54,0.10236220472440945
23.546667,0.14173228346456693
23.553333,0.16535433070866143
23.56,0.1732283464566929
23.566667,0.15748031496062992
23.573333,0.13385826771653545
23.58,0.11023622047244094
23.586667,0.07086614173228346
23.593333,0.023622047244094488
23.6,-0.023622047244094488
23.606667,-0.05514886811023622
23.613333,-0.07089689960629922
23.62,-0.07877091535433071
23.626667,-0.07089689960629922
23.633333,-0.03940083661417323
23.64,0.6298905019685039
23.646667,-0.952755905511811
23.653333,-0.8503937007874016
23.66,-0.8503937007874016
23.666667,0.7165354330708661
23.673333,-0.13385826771653545
23.68,-0.559085875984252
23.686667,-0.5827079232283464
23.693333,-0.5827079232283464
23.7,-0.38585752952755903
23.706667,-0.05514886811023622
23.713333,0.07870939960629922
23.72,0.09448818897637795
23.726667,0.10236220472440945
23.733333,0.11023622047244094
23.74,0.11811023622047244
23.746667,0.12598425196850394
23.753333,0.12598425196850394
23.76,0.12598425196850394
23.766667,0.15748031496062992
23.773333,0.2283464566929134
23.78,0.28346456692913385
23.786667,0.3228346456692913
23.793333,0.3464566929133858
23.8,0.3779527559055118
23.806667,0.4094488188976378
23.813333,0.4251968503937008
23.82,0.4409448818897638
23.826667,0.48031496062992124
23.833333,0.5118110236220472
23.84,0.5354330708661418
23.846667,0.5669291338582677
23.853333,0.5905511811023622
23.86,0.6062992125984252
23.866667,0.6299212598425197
23.873333,0.6456692913385826
23.88,0.6692913385826772
23.886667,0.6929133858267716
23.893333,0.7007874015748031
23.9,0.6929133858267716
23.906667,0.6771653543307087
23.913333,0.6456692913385826
23.92,0.6062992125984252
23.926667,0.5590551181102362
23.933333,0.49606299212598426
23.94,0.4094488188976378
23.946667,0.31496062992125984
23.953333,0.2283464566929134
23.96,0.15748031496062992
23.966667,0.09448818897637795
23.973333,0.03937007874015748
23.98,0.0
23.986667,-0.03152682086614173
23.993333,-0.03940083661417323
24.0,-0.03152682086614173
24.006667,-0.01577878937007874
24.013333,-0.007904773622047244
24.02,-0.007904773622047244
24.026667,-0.007904773622047244
24.033333,-3.075787401574803e-05
24.04,-0.007904773622047244
24.046667,-0.007904773622047244
24.053333,-0.01577878937007874
24.06,-0.01577878937007874
24.066667,-0.01577878937007874
24.073333,-0.01577878937007874
24.08,-0.01577878937007874
24.086667,-0.03152682086614173
24.093333,-0.03152682086614173
24.1,-0.03940083661417323
24.106667,-0.03152682086614173
24.113333,-0.03940083661417323
24.12,-0.05514886811023622
24.126667,-0.07877091535433071
24.133333,-0.08664493110236221
24.14,-0.08664493110236221
24.146667,-0.07089689960629922
24.153333,-0.06302288385826772
24.16,-0.06302288385826772
24.166667,-0.07089689960629922
24.173333,-0.07089689960629922
24.18,-0.06302288385826772
24.186667,-0.06302288385826772
24.193333,-0.06302288385826772
24.2,-0.07089689960629922
24.206667,-0.07877091535433071
24.213333,-0.08664493110236221
24.22,-0.07877091535433071
24.226667,-0.05514886811023622
24.233333,-0.03940083661417323
24.24,-0.023652805118110236
24.246667,-0.007904773622047244
24.253333,0.007843257874015748
24.26,0.031496062992125984
24.266667,0.07086614173228346
24.273333,0.11023622047244094
24.28,0.12598425196850394
24.286667,0.13385826771653545
24.293333,0.13385826771653545
24.3,0.11811023622047244
24.306667,0.10236220472440945
24.313333,0.07874015748031496
24.32,0.03937007874015748
24.326667,0.0
24.333333,-0.047274852362204724
24.34,-0.0945189468503937
24.346667,-0.14176304133858267
24.353333,-0.34648745078740156
24.36,-0.26774729330708663
24.366667,0.015717273622047244
24.373333,0.5590551181102362
24.38,0.952755905511811
24.386667,-1.0
24.393333,-1.0
24.4,0.5590551181102362
24.406667,-0.31496062992125984
24.413333,-0.8189283956692913
24.42,-0.8976685531496063
24.426667,-0.8976685531496063
24.433333,-0.7165661909448819
24.44,-0.40160556102362205
24.446667,-0.17325910433070865
24.453333,-0.03940083661417323
24.46,0.031465305118110236
24.466667,0.07086614173228346
24.473333,0.11811023622047244
24.48,0.14960629921259844
24.486667,0.14960629921259844
24.493333,0.14173228346456693
24.5,0.11811023622047244
24.506667,0.09448818897637795
24.513333,0.07874015748031496
24.52,0.06299212598425197
24.526667,0.06299212598425197
24.533333,0.07086614173228346
24.54,0.07874015748031496
24.546667,0.09448818897637795
24.553333,0.12598425196850394
24.56,0.18110236220472442
24.566667,0.2440944881889764
24.573333,0.31496062992125984
24.58,0.3858267716535433
24.586667,0.4409448818897638
24.593333,0.48031496062992124
24.6,0.5196850393700787
24.606667,0.5511811023622047
24.613333,0.5669291338582677
24.62,0.5669291338582677
24.626667,0.5590551181102362
24.633333,0.5511811023622047
24.64,0.5354330708661418
24.646667,0.5039370078740157
24.653333,0.4645669291338583
24.66,0.4094488188976378
24.666667,0.3464566929133858
24.673333,0.2755905511811024
24.68,0.1889763779527559
24.686667,0.09448818897637795
24.693333,0.007874015748031496
24.7,-0.06299212598425197
24.706667,-0.1181409940944882
24.713333,-0.16538508858267717
24.72,-0.20475516732283464
24.726667,-0.22837721456692914
24.733333,-0.22837721456692914
24.74,-0.22050319881889763
24.746667,-0.21262918307086615
24.753333,-0.20475516732283464
24.76,-0.19688115157480315
24.766667,-0.18900713582677164
24.773333,-0.17325910433070865
24.78,-0.16538508858267717
24.786667,-0.16538508858267717
24.793333,-0.17325910433070865
24.8,-0.17325910433070865
24.806667,-0.18113312007874016
24.813333,-0.18113312007874016
24.82,-0.18900713582677164
24.826667,-0.19688115157480315
24.833333,-0.20475516732283464
24.84,-0.20475516732283464
24.846667,-0.20475516732283464
24.853333,-0.19688115157480315
24.86,-0.18900713582677164
24.866667,-0.18113312007874016
24.873333,-0.17325910433070865
24.88,-0.16538508858267717
24.886667,-0.15751107283464566
24.893333,-0.15751107283464566
24.9,-0.15751107283464566
24.906667,-0.15751107283464566
24.913333,-0.15751107283464566
24.92,-0.14963705708661418
24.926667,-0.14176304133858267
24.933333,-0.12601500984251968
24.94,-0.0945189468503937
24.946667,-0.047274852362204724
24.953333,-3.075787401574803e-05
24.96,0.04721333661417323
24.966667,0.07874015748031496
24.973333,0.10236220472440945
24.98,0.11811023622047244
24.986667,0.11811023622047244
24.993333,0.11023622047244094
25.0,0.09448818897637795
25.006667,0.07086614173228346
25.013333,0.047244094488188976
25.02,0.031496062992125984
25.026667,0.023622047244094488
25.033333,0.015748031496062992
25.04,0.015748031496062992
25.046667,0.007874015748031496
25.053333,-0.015748031496062992
25.06,-0.03940083661417323
25.066667,-0.06302288385826772
25.073333,0.1023314468503937
25.08,0.7401574803149606
25.086667,-0.905511811023622
25.093333,-0.905511811023622
25.1,0.952755905511811
25.106667,0.3464566929133858
25.113333,-0.4251968503937008
25.12,-0.7480622539370079
25.126667,-0.7480622539370079
25.133333,-0.7086921751968503
25.14,-0.606329970472441
25.146667,-0.4882197342519685
25.153333,-0.38585752952755903
25.16,-0.26774729330708663
25.166667,-0.14963705708661418
25.173333,-0.047274852362204724
25.18,0.04721333661417323
25.186667,0.14960629921259844
25.193333,0.2047244094488189
25.2,0.2204724409448819
25.206667,0.2204724409448819
25.213333,0.2125984251968504
25.22,0.2125984251968504
25.226667,0.2047244094488189
25.233333,0.2047244094488189
25.24,0.2125984251968504
25.246667,0.2283464566929134
25.253333,0.25196850393700787
25.26,0.28346456692913385
25.266667,0.31496062992125984
25.273333,0.3464566929133858
25.28,0.3858267716535433
25.286667,0.4251968503937008
25.293333,0.4645669291338583
25.3,0.5039370078740157
25.306667,0.5196850393700787
25.313333,0.5196850393700787
25.32,0.5196850393700787
25.326667,0.5275590551181102
25.333333,0.5354330708661418
25.34,0.5433070866141733
25.346667,0.5275590551181102
25.353333,0.5039370078740157
25.36,0.47244094488188976
25.366667,0.4409448818897638
25.373333,0.3937007874015748
25.38,0.33070866141732286
25.386667,0.25196850393700787
25.393333,0.16535433070866143
25.4,0.07086614173228346
25.406667,-0.007874015748031496
25.413333,-0.06302288385826772
25.42,-0.0945189468503937
25.426667,-0.1181409940944882
25.433333,-0.12601500984251968
25.44,-0.1181409940944882
25.446667,-0.1023929625984252
25.453333,-0.07089689960629922
25.46,-0.03940083661417323
25.466667,-0.023652805118110236
25.473333,-0.01577878937007874
25.48,-0.01577878937007874
25.486667,-0.03152682086614173
25.493333,-0.03940083661417323
25.5,-0.03940083661417323
25.506667,-0.03152682086614173
25.513333,-0.023652805118110236
25.52,-0.03152682086614173
25.526667,-0.03940083661417323
25.533333,-0.03940083661417323
25.54,-0.023652805118110236
25.546667,-0.01577878937007874
25.553333,-0.01577878937007874
25.56,-0.03152682086614173
25.566667,-0.06302288385826772
25.573333,-0.08664493110236221
25.58,-0.1023929625984252
25.586667,-0.0945189468503937
25.593333,-0.0945189468503937
25.6,-0.08664493110236221
25.606667,-0.08664493110236221
25.613333,-0.07089689960629922
25.62,-0.047274852362204724
25.626667,-0.01577878937007874
25.633333,0.007843257874015748
25.64,0.023622047244094488
25.646667,0.031496062992125984
25.653333,0.03937007874015748
25.66,0.03937007874015748
25.666667,0.03937007874015748
25.673333,0.03937007874015748
25.68,0.03937007874015748
25.686667,0.031496062992125984
25.693333,0.007874015748031496
25.7,-0.015748031496062992
25.706667,-0.03940083661417323
25.713333,-0.05514886811023622
25.72,-0.06302288385826772
25.726667,-0.07089689960629922
25.733333,-0.08664493110236221
25.74,-0.1023929625984252
25.746667,-0.1102669783464567
25.753333,-0.07877091535433071
25.76,0.007843257874015748
25.766667,0.9448818897637795
25.773333,0.9448818897637795
25.78,0.9291338582677166
25.786667,0.5433070866141733
25.793333,-0.16535433070866143
25.8,-0.6299520177165354
25.806667,-0.7480622539370079
25.813333,-0.7480622539370079
25.82,-0.5669598917322834
25.826667,-0.2598732775590551
25.833333,-0.06302288385826772
25.84,0.015717273622047244
25.846667,0.03937007874015748
25.853333,0.05511811023622047
25.86,0.05511811023622047
25.866667,0.015748031496062992
25.873333,-0.031496062992125984
25.88,-0.047274852362204724
25.886667,-0.047274852362204724
25.893333,0.007843257874015748
25.9,0.11023622047244094
25.906667,0.15748031496062992
25.913333,0.2125984251968504
25.92,0.2440944881889764
25.926667,0.2677165354330709
25.933333,0.2755905511811024
25.94,0.28346456692913385
25.946667,0.28346456692913385
25.953333,0.30708661417322836
25.96,0.33070866141732286
25.966667,0.33858267716535434
25.973333,0.3543307086614173
25.98,0.36220472440944884
25.986667,0.3779527559055118
25.993333,0.4094488188976378
26.0,0.4409448818897638
26.006667,0.4645669291338583
26.013333,0.4881889763779528
26.02,0.49606299212598426
26.026667,0.4881889763779528
26.033333,0.4645669291338583
26.04,0.4251968503937008
26.046667,0.3700787401574803
26.053333,0.2992125984251969
26.06,0.2283464566929134
26.066667,0.15748031496062992
26.073333,0.08661417322834646
26.08,0.03937007874015748
26.086667,0.0
26.093333,-0.01577878937007874
26.1,-0.023652805118110236
26.106667,-0.03152682086614173
26.113333,-0.03940083661417323
26.12,-0.05514886811023622
26.126667,-0.05514886811023622
26.133333,-0.06302288385826772
26.14,-0.07089689960629922
26.146667,-0.07877091535433071
26.153333,-0.0945189468503937
26.16,-0.1023929625984252
26.166667,-0.0945189468503937
26.173333,-0.07089689960629922
26.18,-0.05514886811023622
26.186667,-0.03940083661417323
26.193333,-0.03152682086614173
26.2,-0.03152682086614173
26.206667,-0.023652805118110236
26.213333,-0.023652805118110236
26.22,-0.023652805118110236
26.226667,-0.03152682086614173
26.233333,-0.047274852362204724
26.24,-0.06302288385826772
26.246667,-0.06302288385826772
26.253333,-0.06302288385826772
26.26,-0.05514886811023622
26.266667,-0.03940083661417323
26.273333,-0.03152682086614173
26.28,-0.023652805118110236
26.286667,-0.01577878937007874
26.293333,-0.007904773622047244
26.3,-0.007904773622047244
26.306667,-3.075787401574803e-05
26.313333,0.007843257874015748
26.32,0.015748031496062992
26.326667,0.015748031496062992
26.333333,0.023622047244094488
26.34,0.03937007874015748
26.346667,0.06299212598425197
26.353333,0.08661417322834646
26.36,0.10236220472440945
26.366667,0.09448818897637795
26.373333,0.07086614173228346
26.38,0.031496062992125984
26.386667,0.0
26.393333,-0.03940083661417323
26.4,-0.07877091535433071
26.406667,-0.1181409940944882
26.413333,-0.14176304133858267
26.42,-0.14176304133858267
26.426667,-0.12601500984251968
26.433333,-0.08664493110236221
26.44,-3.075787401574803e-05
26.446667,0.8503629429133859
26.453333,0.937007874015748
26.46,0.937007874015748
26.466667,0.5511811023622047
26.473333,-0.15748031496062992
26.48,-0.49609375
26.486667,-0.49609375
26.493333,-0.464597687007874
26.5,-0.35436146653543305
26.506667,-0.24412524606299213
26.513333,-0.22050319881889763
26.52,-0.18900713582677164
26.526667,-0.12601500984251968
26.533333,-0.023652805118110236
26.54,0.03933932086614173
26.546667,0.047244094488188976
26.553333,0.05511811023622047
26.56,0.08661417322834646
26.566667,0.11811023622047244
26.573333,0.11811023622047244
26.58,0.11811023622047244
26.586667,0.11023622047244094
26.593333,0.11023622047244094
26.6,0.11811023622047244
26.606667,0.14173228346456693
26.613333,0.14960629921259844
26.62,0.15748031496062992
26.626667,0.1732283464566929
26.633333,0.2047244094488189
26.64,0.25984251968503935
26.646667,0.30708661417322836
26.653333,0.3543307086614173
26.66,0.3937007874015748
26.666667,0.41732283464566927
26.673333,0.44881889763779526
26.68,0.4645669291338583
26.686667,0.47244094488188976
26.693333,0.4645669291338583
26.7,0.4330708661417323
26.706667,0.4015748031496063
26.713333,0.36220472440944884
26.72,0.31496062992125984
26.726667,0.2755905511811024
26.733333,0.2283464566929134
26.74,0.18110236220472442
26.746667,0.14173228346456693
26.753333,0.09448818897637795
26.76,0.06299212598425197
26.766667,0.03937007874015748
26.773333,0.015748031496062992
26.78,-0.007874015748031496
26.786667,-0.03940083661417323
26.793333,-0.06302288385826772
26.8,-0.08664493110236221
26.806667,-0.1023929625984252
26.813333,-0.1023929625984252
26.82,-0.08664493110236221
26.826667,-0.05514886811023622
26.833333,-0.023652805118110236
26.84,0.007843257874015748
26.846667,0.031496062992125984
26.853333,0.03937007874015748
26.86,0.047244094488188976
26.866667,0.047244094488188976
26.873333,0.031496062992125984
26.88,0.023622047244094488
26.886667,0.015748031496062992
26.893333,0.007874015748031496
26.9,0.015748031496062992
26.906667,0.007874015748031496
26.913333,-0.007874015748031496
26.92,-0.023652805118110236
26.926667,-0.047274852362204724
26.933333,-0.06302288385826772
26.94,-0.07877091535433071
26.946667,-0.0945189468503937
26.953333,-0.1102669783464567
26.96,-0.1102669783464567
26.966667,-0.1023929625984252
26.973333,-0.0945189468503937
26.98,-0.07877091535433071
26.986667,-0.06302288385826772
26.993333,-0.05514886811023622
27.0,-0.03940083661417323
27.006667,-0.03152682086614173
27.013333,-0.01577878937007874
27.02,0.007843257874015748
27.026667,0.031496062992125984
27.033333,0.047244094488188976
27.04,0.05511811023622047
27.046667,0.047244094488188976
27.053333,0.031496062992125984
27.06,0.007874015748031496
27.066667,-0.015748031496062992
27.073333,-0.03152682086614173
27.08,-0.05514886811023622
27.086667,-0.07089689960629922
27.093333,-0.08664493110236221
27.1,-0.0945189468503937
27.106667,-0.1102669783464567
27.113333,-0.1181409940944882
27.12,-0.1023929625984252
27.126667,0.3149298720472441
27.133333,0.8188976377952756
27.14,-0.952755905511811
27.146667,-0.952755905511811
27.153333,0.7559055118110236
27.16,0.11023622047244094
27.166667,-0.48031496062992124
27.173333,-0.7244402066929134
27.18,-0.7244402066929134
27.186667,-0.5748339074803149
27.193333,-0.3071173720472441
27.2,-0.1338890255905512
27.206667,-0.05514886811023622
27.213333,0.007843257874015748
27.22,0.05511811023622047
27.226667,0.05511811023622047
27.233333,0.047244094488188976
27.24,-0.031496062992125984
27.246667,-0.1102669783464567
27.253333,-0.1102669783464567
27.26,-0.023652805118110236
27.266667,0.02359128937007874
27.273333,0.05511811023622047
27.28,0.07086614173228346
27.286667,0.07874015748031496
27.293333,0.10236220472440945
27.3,0.12598425196850394
27.306667,0.14960629921259844
27.313333,0.1889763779527559
27.32,0.2125984251968504
27.326667,0.23622047244094488
27.333333,0.25984251968503935
27.34,0.28346456692913385
27.346667,0.31496062992125984
27.353333,0.33858267716535434
27.36,0.3543307086614173
27.366667,0.3700787401574803
27.373333,0.3937007874015748
27.38,0.41732283464566927
27.386667,0.4409448818897638
27.393333,0.4566929133858268
27.4,0.44881889763779526
27.406667,0.4251968503937008
27.413333,0.3858267716535433
27.42,0.3228346456692913
27.426667,0.2677165354330709
27.433333,0.2125984251968504
27.44,0.14960629921259844
27.446667,0.08661417322834646
27.453333,0.031496062992125984
27.46,-0.007874015748031496
27.466667,-0.01577878937007874
27.473333,-0.007904773622047244
27.48,0.007843257874015748
27.486667,0.007874015748031496
27.493333,0.0
27.5,-0.007904773622047244
27.506667,-0.023652805118110236
27.513333,-0.03152682086614173
27.52,-0.047274852362204724
27.526667,-0.05514886811023622
27.533333,-0.06302288385826772
27.54,-0.06302288385826772
27.546667,-0.047274852362204724
27.553333,-0.03152682086614173
27.56,-0.01577878937007874
27.566667,-0.007904773622047244
27.573333,-0.007904773622047244
27.58,-0.01577878937007874
27.586667,-0.03152682086614173
27.593333,-0.047274852362204724
27.6,-0.07089689960629922
27.606667,-0.08664493110236221
27.613333,-0.0945189468503937
27.62,-0.0945189468503937
27.626667,-0.08664493110236221
27.633333,-0.08664493110236221
27.64,-0.0945189468503937
27.646667,-0.1023929625984252
27.653333,-0.1102669783464567
27.66,-0.1181409940944882
27.666667,-0.1181409940944882
27.673333,-0.12601500984251968
27.68,-0.1338890255905512
27.686667,-0.1181409940944882
27.693333,-0.07877091535433071
27.7,-0.047274852362204724
27.706667,-0.023652805118110236
27.713333,-0.01577878937007874
27.72,-0.023652805118110236
27.726667,-0.03152682086614173
27.733333,-0.047274852362204724
27.74,-0.07089689960629922
27.746667,-0.08664493110236221
27.753333,-0.1023929625984252
27.76,-0.1023929625984252
27.766667,-0.08664493110236221
27.773333,-0.05514886811023622
27.78,-0.023652805118110236
27.786667,0.007843257874015748
27.793333,0.047244094488188976
27.8,0.07874015748031496
27.806667,0.10236220472440945
27.813333,0.11023622047244094
27.82,0.12598425196850394
27.826667,0.12598425196850394
27.833333,0.11811023622047244
27.84,0.11023622047244094
27.846667,0.09448818897637795
27.853333,0.07086614173228346
27.86,0.047244094488188976
27.866667,0.015748031496062992
27.873333,-0.007874015748031496
27.88,-0.03152682086614173
27.886667,-0.03940083661417323
27.893333,-0.047274852362204724
27.9,-0.05514886811023622
27.906667,-0.07089689960629922
27.913333,-0.08664493110236221
27.92,-0.05514886811023622
27.926667,0.6850086122047244
27.933333,0.9921259842519685
27.94,0.9921259842519685
27.946667,0.7874015748031497
27.953333,0.2204724409448819
27.96,-0.33070866141732286
27.966667,-0.511841781496063
27.973333,-0.511841781496063
27.98,-0.35436146653543305
27.986667,-0.18113312007874016
27.993333,-0.1181409940944882
28.0,-0.1102669783464567
28.006667,-0.1102669783464567
28.013333,-0.07089689960629922
28.02,-0.023652805118110236
28.026667,-3.075787401574803e-05
28.033333,0.02359128937007874
28.04,0.08661417322834646
28.046667,0.1889763779527559
28.053333,0.2440944881889764
28.06,0.2440944881889764
28.066667,0.2440944881889764
28.073333,0.2440944881889764
28.08,0.2440944881889764
