t_sec,ecg
0.0,0.04587433762301287
0.006667,0.48811506434519303
0.013333,-0.006934140802422407
0.02,0.09277819833459501
0.026667,-0.007600302800908403
0.033333,-0.007993943981831945
0.04,-0.007993943981831945
0.046667,0.28657077971233913
0.053333,0.06961392884178652
0.06,-0.00720666161998486
0.066667,0.30207418622255866
0.073333,-0.06894776684330053
0.08,-0.046540499621498865
0.086667,-0.015533686601059804
0.093333,0.007721423164269493
0.1,0.01550340651021953
0.106667,0.03875851627554883
0.113333,0.05426192278576836
0.12,0.08526873580620742
0.126667,0.12402725208175625
0.133333,0.1550340651021953
0.14,0.17053747161241484
0.146667,0.1782891748675246
0.153333,0.19379258137774413
0.16,0.23255109765329296
0.166667,0.2945647236941711
0.173333,0.3333232399697199
0.18,0.34882664647993944
0.186667,0.3410749432248297
0.193333,0.3178198334595004
0.2,0.30231642694928085
0.206667,0.2868130204390613
0.213333,0.263557910673732
0.22,0.2247993943981832
0.226667,0.1782891748675246
0.233333,0.131778955336866
0.24,0.10077214231642695
0.246667,0.07751703255109765
0.253333,0.05426192278576836
0.26,0.03100681302043906
0.266667,-0.007751703255109765
0.273333,-0.03875851627554883
0.28,-0.06979560938682816
0.286667,-0.06979560938682816
0.293333,-0.062043906131718396
0.3,-0.05429220287660863
0.306667,-0.046540499621498865
0.313333,-0.031037093111279335
0.32,-0.007781983345950038
0.326667,0.01550340651021953
0.333333,0.03875851627554883
0.34,0.05426192278576836
0.346667,0.06201362604087812
0.353333,0.06201362604087812
0.36,0.04651021953065859
0.366667,0.023255109765329296
0.373333,-0.01550340651021953
0.38,-0.05429220287660863
0.386667,-0.08529901589704769
0.393333,-0.13956093868281605
0.4,-0.13180923542770628
0.406667,-0.062043906131718396
0.413333,0.33329295987887964
0.42,-0.7984254352763058
0.426667,-0.3100681302043906
0.433333,-0.3100681302043906
0.44,-0.8061771385314156
0.446667,0.10077214231642695
0.453333,-0.527115821347464
0.46,-0.5659046177138531
0.466667,-0.5659046177138531
0.473333,-0.4573807721423164
0.48,-0.34110522331566995
0.486667,-0.34110522331566995
0.493333,-0.34110522331566995
0.5,-0.34110522331566995
0.506667,-0.2790915972747918
0.513333,-0.17831945495836488
0.52,-0.09305071915215746
0.526667,-0.046540499621498865
0.533333,-0.046540499621498865
0.54,-0.046540499621498865
0.546667,-0.046540499621498865
0.553333,-0.046540499621498865
0.56,-0.0387887963663891
0.566667,-0.02328538985616957
0.573333,-3.028009084027252e-05
0.58,0.03100681302043906
0.586667,0.06201362604087812
0.593333,0.10077214231642695
0.6,0.13953065859197578
0.606667,0.1782891748675246
0.613333,0.21704769114307343
0.62,0.24030280090840272
0.626667,0.2480545041635125
0.633333,0.25580620741862226
0.64,0.263557910673732
0.646667,0.2713096139288418
0.653333,0.27906131718395155
0.66,0.2945647236941711
0.666667,0.2868130204390613
0.673333,0.2713096139288418
0.68,0.25580620741862226
0.686667,0.2247993943981832
0.693333,0.19379258137774413
0.7,0.14728236184708554
0.706667,0.09302043906131718
0.713333,0.04651021953065859
0.72,0.007751703255109765
0.726667,-0.01550340651021953
0.733333,-0.031037093111279335
0.74,-0.0387887963663891
0.746667,-0.0387887963663891
0.753333,-0.031037093111279335
0.76,-0.02328538985616957
0.766667,-0.02328538985616957
0.773333,-0.02328538985616957
0.78,-0.02328538985616957
0.786667,-0.015533686601059804
0.793333,-0.007781983345950038
0.8,0.007751703255109765
0.806667,0.01550340651021953
0.813333,0.03100681302043906
0.82,0.04651021953065859
0.826667,0.03875851627554883
0.833333,0.03100681302043906
0.84,0.007751703255109765
0.846667,-0.01550340651021953
0.853333,-0.046540499621498865
0.86,-0.09305071915215746
0.866667,-0.13180923542770628
0.873333,-0.22482967448902347
0.88,-0.18607115821347464
0.886667,0.10849356548069644
0.893333,0.8139288417865254
0.9,-0.6899015897047691
0.906667,-0.6511430734292203
0.913333,-0.6511430734292203
0.92,0.7054049962149886
0.926667,-0.39533686601059803
0.933333,-0.8837244511733535
0.94,-0.8837244511733535
0.946667,-0.6821801665404996
0.953333,-0.372112036336109
0.96,-0.24808478425435276
0.966667,-0.22482967448902347
0.973333,-0.2170779712339137
0.98,-0.20932626797880394
0.986667,-0.1938228614685844
0.993333,-0.1938228614685844
1.0,-0.20157456472369417
1.006667,-0.20157456472369417
1.013333,-0.17831945495836488
1.02,-0.13180923542770628
1.026667,-0.10080242240726722
1.033333,-0.06979560938682816
1.04,-0.0387887963663891
1.046667,-0.015533686601059804
1.053333,0.007721423164269493
1.06,0.06976532929598789
1.066667,0.11627554882664648
1.073333,0.1550340651021953
1.08,0.18604087812263437
1.086667,0.20929598788796366
1.093333,0.2247993943981832
1.1,0.2480545041635125
1.106667,0.2713096139288418
1.113333,0.2945647236941711
1.12,0.3178198334595004
1.126667,0.32557153671461014
1.133333,0.32557153671461014
1.14,0.3178198334595004
1.146667,0.3100681302043906
1.153333,0.27906131718395155
1.16,0.2247993943981832
1.166667,0.17053747161241484
1.173333,0.10852384557153671
1.18,0.06201362604087812
1.186667,0.03875851627554883
1.193333,0.023255109765329296
1.2,0.01550340651021953
1.206667,0.007751703255109765
1.213333,0.007751703255109765
1.22,0.01550340651021953
1.226667,0.023255109765329296
1.233333,0.03100681302043906
1.24,0.03100681302043906
1.246667,0.01550340651021953
1.253333,0.007751703255109765
1.26,0.01550340651021953
1.266667,0.03875851627554883
1.273333,0.06201362604087812
1.28,0.06976532929598789
1.286667,0.06201362604087812
1.293333,0.05426192278576836
1.3,0.03875851627554883
1.306667,0.023255109765329296
1.313333,0.0
1.32,-0.03875851627554883
1.326667,-0.08529901589704769
1.333333,-0.11630582891748675
1.34,-0.14731264193792581
1.346667,-0.2868433005299016
1.353333,-0.2868433005299016
1.36,-0.02328538985616957
1.366667,0.6821196063588191
1.373333,-0.7674186222558668
1.38,-0.6743981831945496
1.386667,-0.6743981831945496
1.393333,0.7054049962149886
1.4,-0.3100681302043906
1.406667,-0.7286903860711582
1.413333,-0.7286903860711582
1.42,-0.5659046177138531
1.426667,-0.3953671461014383
1.433333,-0.36436033308099924
1.44,-0.3566086298258895
1.446667,-0.3488569265707797
1.453333,-0.3023467070401211
1.46,-0.22482967448902347
1.466667,-0.15506434519303558
1.473333,-0.11630582891748675
1.48,-0.10855412566237699
1.486667,-0.10855412566237699
1.493333,-0.10855412566237699
1.5,-0.10855412566237699
1.506667,-0.10855412566237699
1.513333,-0.09305071915215746
1.52,-0.06979560938682816
1.526667,-0.0387887963663891
1.533333,-3.028009084027252e-05
1.54,0.04651021953065859
1.546667,0.08526873580620742
1.553333,0.131778955336866
1.56,0.17053747161241484
1.566667,0.21704769114307343
1.573333,0.2713096139288418
1.58,0.30231642694928085
1.586667,0.32557153671461014
1.593333,0.3333232399697199
1.6,0.3410749432248297
1.606667,0.3410749432248297
1.613333,0.34882664647993944
1.62,0.3178198334595004
1.626667,0.2713096139288418
1.633333,0.2247993943981832
1.64,0.18604087812263437
1.646667,0.1550340651021953
1.653333,0.131778955336866
1.66,0.10077214231642695
1.666667,0.06201362604087812
1.673333,0.03875851627554883
1.68,0.023255109765329296
1.686667,0.01550340651021953
1.693333,0.0
1.7,-0.023255109765329296
1.706667,-0.0387887963663891
1.713333,-0.046540499621498865
1.72,-0.0387887963663891
1.726667,-0.02328538985616957
1.733333,-3.028009084027252e-05
1.74,0.023255109765329296
1.746667,0.05426192278576836
1.753333,0.09302043906131718
1.76,0.11627554882664648
1.766667,0.131778955336866
1.773333,0.11627554882664648
1.78,0.08526873580620742
1.786667,0.03875851627554883
1.793333,-0.007751703255109765
1.8,-0.05426192278576836
1.806667,-0.09305071915215746
1.813333,-0.12405753217259652
1.82,-0.08529901589704769
1.826667,-0.08529901589704769
1.833333,0.1627554882664648
1.84,0.8526873580620742
1.846667,-0.6046328538985617
1.853333,-0.5581226343679031
1.86,-0.5581226343679031
1.866667,0.7984254352763058
1.873333,-0.30231642694928085
1.88,-0.7829523088569266
1.886667,-0.7829523088569266
1.893333,-0.6279182437547313
1.9,-0.40311884935654807
1.906667,-0.3023467070401211
1.913333,-0.27133989401968206
1.92,-0.20157456472369417
1.926667,-0.10855412566237699
1.933333,-0.046540499621498865
1.94,-0.046540499621498865
1.946667,-0.0387887963663891
1.953333,-0.031037093111279335
1.96,-0.031037093111279335
1.966667,-0.031037093111279335
1.973333,-0.031037093111279335
1.98,-0.031037093111279335
1.986667,-0.031037093111279335
1.993333,-0.015533686601059804
2.0,0.007721423164269493
2.006667,0.03100681302043906
2.013333,0.05426192278576836
2.02,0.06976532929598789
2.026667,0.07751703255109765
2.033333,0.10852384557153671
2.04,0.13953065859197578
2.046667,0.17053747161241484
2.053333,0.19379258137774413
2.06,0.20929598788796366
2.066667,0.23255109765329296
2.073333,0.263557910673732
2.08,0.2868130204390613
2.086667,0.2868130204390613
2.093333,0.2480545041635125
2.1,0.20929598788796366
2.106667,0.17053747161241484
2.113333,0.131778955336866
2.12,0.09302043906131718
2.126667,0.05426192278576836
2.133333,0.023255109765329296
2.14,0.01550340651021953
2.146667,0.023255109765329296
2.153333,0.023255109765329296
2.16,0.0
2.166667,-0.03100681302043906
2.173333,-0.062043906131718396
2.18,-0.07754731264193793
2.186667,-0.09305071915215746
2.193333,-0.10080242240726722
2.2,-0.10855412566237699
2.206667,-0.11630582891748675
2.213333,-0.08529901589704769
2.22,-0.046540499621498865
2.226667,-3.028009084027252e-05
2.233333,0.01550340651021953
2.24,-0.007751703255109765
2.246667,-0.03100681302043906
2.253333,-0.046540499621498865
2.26,-0.06979560938682816
2.266667,-0.10080242240726722
2.273333,-0.13956093868281605
2.28,-0.1705677517032551
2.286667,-0.17831945495836488
2.293333,-0.16281604844814535
2.3,-0.12405753217259652
2.306667,0.7751400454201363
2.313333,-0.7751703255109765
2.32,-0.7751703255109765
2.326667,-0.8449356548069644
2.333333,0.4185919757759273
2.34,-0.4185919757759273
2.346667,-0.6124148372445117
2.353333,-0.6124148372445117
2.36,-0.4651324753974262
2.366667,-0.3100984102952309
2.373333,-0.2790915972747918
2.38,-0.23258137774413323
2.386667,-0.1938228614685844
2.393333,-0.17831945495836488
2.4,-0.17831945495836488
2.406667,-0.17831945495836488
2.413333,-0.11630582891748675
2.42,-0.07754731264193793
2.426667,-0.0387887963663891
2.433333,-0.031037093111279335
2.44,-0.007781983345950038
2.446667,0.03875851627554883
2.453333,0.08526873580620742
2.46,0.10852384557153671
2.466667,0.11627554882664648
2.473333,0.10852384557153671
2.48,0.10852384557153671
2.486667,0.10077214231642695
2.493333,0.12402725208175625
2.5,0.13953065859197578
2.506667,0.16278576835730507
2.513333,0.2015442846328539
2.52,0.25580620741862226
2.526667,0.3178198334595004
2.533333,0.37208175624526874
2.54,0.41084027252081756
2.546667,0.41084027252081756
2.553333,0.38758516275548827
2.56,0.3410749432248297
2.566667,0.27906131718395155
2.573333,0.21704769114307343
2.58,0.16278576835730507
2.586667,0.11627554882664648
2.593333,0.08526873580620742
2.6,0.07751703255109765
2.606667,0.08526873580620742
2.613333,0.09302043906131718
2.62,0.09302043906131718
2.626667,0.06976532929598789
2.633333,0.03100681302043906
2.64,0.007751703255109765
2.646667,0.0
2.653333,0.0
2.66,0.0
2.666667,0.0
2.673333,0.03100681302043906
2.68,0.08526873580620742
2.686667,0.13953065859197578
2.693333,0.1782891748675246
2.7,0.18604087812263437
2.706667,0.1782891748675246
2.713333,0.16278576835730507
2.72,0.14728236184708554
2.726667,0.10852384557153671
2.733333,0.05426192278576836
2.74,0.0
2.746667,-0.03875851627554883
2.753333,-0.05429220287660863
2.76,-0.031037093111279335
2.766667,0.2945344436033308
2.773333,-0.8759424678274035
2.78,-0.37208175624526874
2.786667,-0.37208175624526874
2.793333,-0.7364118092354277
2.8,0.2713096139288418
2.806667,-0.3565783497350492
2.813333,-0.3566086298258895
2.82,-0.31785011355034065
2.826667,-0.2868433005299016
2.833333,-0.2868433005299016
2.84,-0.29459500378501136
2.846667,-0.29459500378501136
2.853333,-0.2170779712339137
2.86,-0.14731264193792581
2.866667,-0.14731264193792581
2.873333,-0.14731264193792581
2.88,-0.15506434519303558
2.886667,-0.15506434519303558
2.893333,-0.11630582891748675
2.9,-0.07754731264193793
2.906667,-0.05429220287660863
2.913333,-0.046540499621498865
2.92,-0.0387887963663891
2.926667,-0.031037093111279335
2.933333,-0.015533686601059804
2.94,0.023224829674489023
2.946667,0.05426192278576836
2.953333,0.07751703255109765
2.96,0.09302043906131718
2.966667,0.10852384557153671
2.973333,0.131778955336866
2.98,0.17053747161241484
2.986667,0.19379258137774413
2.993333,0.21704769114307343
3.0,0.2247993943981832
3.006667,0.2247993943981832
3.013333,0.21704769114307343
3.02,0.2015442846328539
3.026667,0.17053747161241484
3.033333,0.131778955336866
3.04,0.09302043906131718
3.046667,0.04651021953065859
3.053333,0.01550340651021953
3.06,-0.007751703255109765
3.066667,-0.023255109765329296
3.073333,-0.031037093111279335
3.08,-0.0387887963663891
3.086667,-0.05429220287660863
3.093333,-0.07754731264193793
3.1,-0.09305071915215746
3.106667,-0.11630582891748675
3.113333,-0.12405753217259652
3.12,-0.10855412566237699
3.126667,-0.07754731264193793
3.133333,-0.046540499621498865
3.14,-3.028009084027252e-05
3.146667,0.023255109765329296
3.153333,0.03100681302043906
3.16,0.023255109765329296
3.166667,0.007751703255109765
3.173333,-0.03100681302043906
3.18,-0.07754731264193793
3.186667,-0.13180923542770628
3.193333,-0.18607115821347464
3.2,-0.2170779712339137
3.206667,-0.240333080999243
3.213333,-0.4418773656320969
3.22,-0.4418773656320969
3.226667,-0.2790915972747918
3.233333,0.31003785011355034
3.24,-0.8061771385314156
3.246667,-0.37208175624526874
3.253333,-0.37208175624526874
3.26,-0.8139288417865254
3.266667,0.131778955336866
3.273333,-0.6433913701741105
3.28,-0.8294625283875852
3.286667,-0.8294625283875852
3.293333,-0.635669947009841
3.3,-0.36436033308099924
3.306667,-0.2790915972747918
3.313333,-0.2790915972747918
3.32,-0.2868433005299016
3.326667,-0.3023467070401211
3.333333,-0.3023467070401211
3.34,-0.25583648750946253
3.346667,-0.17831945495836488
3.353333,-0.15506434519303558
3.36,-0.13956093868281605
3.366667,-0.12405753217259652
3.373333,-0.10080242240726722
3.38,-0.08529901589704769
3.386667,-0.05429220287660863
3.393333,-0.031037093111279335
3.4,0.015473126419379259
3.406667,0.05426192278576836
3.413333,0.09302043906131718
3.42,0.12402725208175625
3.426667,0.1550340651021953
3.433333,0.19379258137774413
3.44,0.2480545041635125
3.446667,0.3100681302043906
3.453333,0.36433005299015897
3.46,0.41084027252081756
3.466667,0.45735049205147615
3.473333,0.48060560181680545
3.48,0.4883573050719152
3.486667,0.4728538985616957
3.493333,0.43409538228614686
3.5,0.38758516275548827
3.506667,0.3410749432248297
3.513333,0.2945647236941711
3.52,0.263557910673732
3.526667,0.2480545041635125
3.533333,0.23255109765329296
3.54,0.2015442846328539
3.546667,0.1782891748675246
3.553333,0.1550340651021953
3.56,0.12402725208175625
3.566667,0.10077214231642695
3.573333,0.06976532929598789
3.58,0.05426192278576836
3.586667,0.06201362604087812
3.593333,0.08526873580620742
3.6,0.10852384557153671
3.606667,0.11627554882664648
3.613333,0.11627554882664648
3.62,0.11627554882664648
3.626667,0.10852384557153671
3.633333,0.10077214231642695
3.64,0.06976532929598789
3.646667,0.03100681302043906
3.653333,0.0
3.66,-0.023255109765329296
3.666667,-0.0387887963663891
3.673333,-0.062043906131718396
3.68,-0.09305071915215746
3.686667,-0.20157456472369417
3.693333,-0.046540499621498865
3.7,0.48832702498107494
3.706667,-0.7906737320211961
3.713333,-0.4728538985616957
3.72,-0.4728538985616957
3.726667,0.860439061317184
3.733333,-0.36433005299015897
3.74,-0.9534897804693414
3.746667,-0.9534897804693414
3.753333,-0.7131869795609387
3.76,-0.43412566237698713
3.766667,-0.34110522331566995
3.773333,-0.3333535200605602
3.78,-0.27133989401968206
3.786667,-0.1705677517032551
3.793333,-0.08529901589704769
3.8,-0.08529901589704769
3.806667,-0.13180923542770628
3.813333,-0.240333080999243
3.82,-0.3100984102952309
3.826667,-0.3100984102952309
3.833333,-0.2868433005299016
3.84,-0.240333080999243
3.846667,-0.18607115821347464
3.853333,-0.13956093868281605
3.86,-0.10855412566237699
3.866667,-0.07754731264193793
3.873333,-0.015533686601059804
3.88,0.054231642694928084
3.886667,0.11627554882664648
3.893333,0.1550340651021953
3.9,0.1782891748675246
3.906667,0.2015442846328539
3.913333,0.23255109765329296
3.92,0.263557910673732
3.926667,0.2945647236941711
3.933333,0.3100681302043906
3.94,0.3100681302043906
3.946667,0.2868130204390613
3.953333,0.25580620741862226
3.96,0.20929598788796366
3.966667,0.14728236184708554
3.973333,0.07751703255109765
3.98,0.007751703255109765
3.986667,-0.04651021953065859
3.993333,-0.08529901589704769
4.0,-0.10855412566237699
4.006667,-0.10855412566237699
4.013333,-0.10080242240726722
4.02,-0.09305071915215746
4.026667,-0.06979560938682816
4.033333,-0.046540499621498865
4.04,-0.02328538985616957
4.046667,-3.028009084027252e-05
4.053333,0.01550340651021953
4.06,0.03100681302043906
4.066667,0.04651021953065859
4.073333,0.06201362604087812
4.08,0.06201362604087812
4.086667,0.06201362604087812
4.093333,0.04651021953065859
4.1,0.023255109765329296
4.106667,0.0
4.113333,-0.01550340651021953
4.12,-0.0387887963663891
4.126667,-0.07754731264193793
4.133333,-0.11630582891748675
4.14,-0.16281604844814535
4.146667,-0.29459500378501136
4.153333,-0.13956093868281605
4.16,0.35654806964420893
4.166667,-0.8371839515518547
4.173333,-0.39533686601059803
4.18,-0.39533686601059803
4.186667,-0.9767146101438304
4.193333,-0.1782891748675246
4.2,-0.7907040121120363
4.206667,-0.7907040121120363
4.213333,-0.7286903860711582
4.22,-0.5348978046934141
4.226667,-0.38761544284632854
4.233333,-0.38761544284632854
4.24,-0.3953671461014383
4.246667,-0.3953671461014383
4.253333,-0.34110522331566995
4.26,-0.25583648750946253
4.266667,-0.20932626797880394
4.273333,-0.20157456472369417
4.28,-0.1938228614685844
4.286667,-0.17831945495836488
4.293333,-0.13956093868281605
4.3,-0.10855412566237699
4.306667,-0.08529901589704769
4.313333,-0.06979560938682816
4.32,-0.062043906131718396
4.326667,-0.05429220287660863
4.333333,-0.015533686601059804
4.34,0.030976532929598788
4.346667,0.06976532929598789
4.353333,0.11627554882664648
4.36,0.1550340651021953
4.366667,0.19379258137774413
4.373333,0.23255109765329296
4.38,0.263557910673732
4.386667,0.2868130204390613
4.393333,0.2945647236941711
4.4,0.27906131718395155
4.406667,0.25580620741862226
4.413333,0.23255109765329296
4.42,0.20929598788796366
4.426667,0.18604087812263437
4.433333,0.16278576835730507
4.44,0.13953065859197578
4.446667,0.10077214231642695
4.453333,0.06976532929598789
4.46,0.04651021953065859
4.466667,0.023255109765329296
4.473333,0.007751703255109765
4.48,-0.007751703255109765
4.486667,-0.01550340651021953
4.493333,-0.02328538985616957
4.5,-0.007781983345950038
4.506667,0.023255109765329296
4.513333,0.05426192278576836
4.52,0.06976532929598789
4.526667,0.08526873580620742
4.533333,0.08526873580620742
4.54,0.07751703255109765
4.546667,0.06201362604087812
4.553333,0.03100681302043906
4.56,-0.007751703255109765
4.566667,-0.03875851627554883
4.573333,-0.06979560938682816
4.58,-0.10080242240726722
4.586667,-0.11630582891748675
4.593333,-0.13180923542770628
4.6,-0.15506434519303558
4.606667,-0.16281604844814535
4.613333,-0.13956093868281605
4.62,0.7131264193792581
4.626667,-0.8371839515518547
4.633333,-0.8371839515518547
4.64,-0.8836941710825132
4.646667,0.4418470855412566
4.653333,-0.4883573050719152
4.66,-0.8139591218773656
4.666667,-0.8139591218773656
4.673333,-0.6589250567751703
4.68,-0.44962906888720666
4.686667,-0.3566086298258895
4.693333,-0.2790915972747918
4.7,-0.20932626797880394
4.706667,-0.1705677517032551
4.713333,-0.1705677517032551
4.72,-0.1705677517032551
4.726667,-0.15506434519303558
4.733333,-0.11630582891748675
4.74,-0.06979560938682816
4.746667,-0.046540499621498865
4.753333,-0.046540499621498865
4.76,-0.046540499621498865
4.766667,-0.0387887963663891
4.773333,-0.02328538985616957
4.78,-3.028009084027252e-05
4.786667,0.023255109765329296
4.793333,0.05426192278576836
4.8,0.07751703255109765
4.806667,0.10852384557153671
4.813333,0.1550340651021953
4.82,0.2015442846328539
4.826667,0.24030280090840272
4.833333,0.2713096139288418
4.84,0.27906131718395155
4.846667,0.263557910673732
4.853333,0.2480545041635125
4.86,0.21704769114307343
4.866667,0.19379258137774413
4.873333,0.16278576835730507
4.88,0.13953065859197578
4.886667,0.10077214231642695
4.893333,0.05426192278576836
4.9,0.03100681302043906
4.906667,0.023255109765329296
4.913333,0.007751703255109765
4.92,-0.007751703255109765
4.926667,-0.03875851627554883
4.933333,-0.07754731264193793
4.94,-0.10855412566237699
4.946667,-0.10855412566237699
4.953333,-0.08529901589704769
4.96,-0.06979560938682816
4.966667,-0.046540499621498865
4.973333,-0.031037093111279335
4.98,-0.007781983345950038
4.986667,0.03100681302043906
4.993333,0.06976532929598789
5.0,0.06976532929598789
5.006667,0.03875851627554883
5.013333,0.0
5.02,-0.03875851627554883
5.026667,-0.06979560938682816
5.033333,-0.10080242240726722
5.04,-0.13180923542770628
5.046667,-0.16281604844814535
5.053333,-0.17831945495836488
5.06,-0.16281604844814535
5.066667,0.5348372445117335
5.073333,-0.8836941710825132
5.08,-0.7131566994700984
5.086667,-0.7131566994700984
5.093333,0.7674186222558668
5.1,-0.17053747161241484
5.106667,-0.6124148372445117
5.113333,-0.6124148372445117
5.12,-0.5659046177138531
5.126667,-0.4186222558667676
5.133333,-0.3100984102952309
5.14,-0.3023467070401211
5.146667,-0.29459500378501136
5.153333,-0.2868433005299016
5.16,-0.2170779712339137
5.166667,-0.15506434519303558
5.173333,-0.13956093868281605
5.18,-0.13180923542770628
5.186667,-0.12405753217259652
5.193333,-0.062043906131718396
5.2,-0.007781983345950038
5.206667,0.0
5.213333,0.0
5.22,0.007751703255109765
5.226667,0.01550340651021953
5.233333,0.04651021953065859
5.24,0.07751703255109765
5.246667,0.10077214231642695
5.253333,0.13953065859197578
5.26,0.17053747161241484
5.266667,0.2015442846328539
5.273333,0.23255109765329296
5.28,0.2480545041635125
5.286667,0.25580620741862226
5.293333,0.25580620741862226
5.3,0.2480545041635125
5.306667,0.2247993943981832
5.313333,0.2015442846328539
5.32,0.17053747161241484
5.326667,0.13953065859197578
5.333333,0.10852384557153671
5.34,0.08526873580620742
5.346667,0.05426192278576836
5.353333,0.03875851627554883
5.36,0.023255109765329296
5.366667,0.007751703255109765
5.373333,0.0
5.38,0.0
5.386667,-0.007751703255109765
5.393333,-0.007751703255109765
5.4,-0.01550340651021953
5.406667,-0.015533686601059804
5.413333,-0.007781983345950038
5.42,0.007751703255109765
5.426667,0.023255109765329296
5.433333,0.03100681302043906
5.44,0.03100681302043906
5.446667,0.023255109765329296
5.453333,0.007751703255109765
5.46,-0.007751703255109765
5.466667,-0.023255109765329296
5.473333,-0.0387887963663891
5.48,-0.062043906131718396
5.486667,-0.09305071915215746
5.493333,-0.11630582891748675
5.5,-0.13956093868281605
5.506667,-0.14731264193792581
5.513333,0.22476911430734292
5.52,0.9224526873580621
5.526667,-0.65889477668433
5.533333,-0.65889477668433
5.54,-0.9147009841029523
5.546667,0.263557910673732
5.553333,-0.5193641180923543
5.56,-0.7441937925813777
5.566667,-0.7441937925813777
5.573333,-0.5193943981831946
5.58,-0.29459500378501136
5.586667,-0.29459500378501136
5.593333,-0.29459500378501136
5.6,-0.3023467070401211
5.606667,-0.3023467070401211
5.613333,-0.240333080999243
5.62,-0.15506434519303558
5.626667,-0.12405753217259652
5.633333,-0.10080242240726722
5.64,-0.062043906131718396
5.646667,-0.015533686601059804
5.653333,-0.007781983345950038
5.66,-0.007751703255109765
5.666667,-0.007751703255109765
5.673333,-0.007751703255109765
5.68,0.0
5.686667,0.007751703255109765
5.693333,0.023255109765329296
5.7,0.03875851627554883
5.706667,0.04651021953065859
5.713333,0.06201362604087812
5.72,0.09302043906131718
5.726667,0.12402725208175625
5.733333,0.16278576835730507
5.74,0.1782891748675246
5.746667,0.18604087812263437
5.753333,0.18604087812263437
5.76,0.18604087812263437
5.766667,0.1782891748675246
5.773333,0.1550340651021953
5.78,0.12402725208175625
5.786667,0.09302043906131718
5.793333,0.06976532929598789
5.8,0.04651021953065859
5.806667,0.03100681302043906
5.813333,0.007751703255109765
5.82,-0.023255109765329296
5.826667,-0.046540499621498865
5.833333,-0.07754731264193793
5.84,-0.10080242240726722
5.846667,-0.12405753217259652
5.853333,-0.12405753217259652
5.86,-0.10855412566237699
5.866667,-0.062043906131718396
5.873333,-0.007781983345950038
5.88,0.04651021953065859
5.886667,0.08526873580620742
5.893333,0.09302043906131718
5.9,0.06976532929598789
5.906667,0.03875851627554883
5.913333,0.0
5.92,-0.05426192278576836
5.926667,-0.11630582891748675
5.933333,-0.17831945495836488
5.94,-0.22482967448902347
5.946667,-0.27133989401968206
5.953333,-0.27133989401968206
5.96,-0.1705677517032551
5.966667,0.31003785011355034
5.973333,-0.860439061317184
5.98,-0.4418470855412566
5.986667,-0.4418470855412566
5.993333,0.9457077971233914
6.0,-0.2015442846328539
6.006667,-0.7596971990915973
6.013333,-0.7596971990915973
6.02,-0.7441937925813777
6.026667,-0.6666767600302801
6.033333,-0.5426495079485238
6.04,-0.38761544284632854
6.046667,-0.2170779712339137
6.053333,-0.15506434519303558
6.06,-0.15506434519303558
6.066667,-0.2790915972747918
6.073333,-0.41087055261165784
6.08,-0.41087055261165784
6.086667,-0.3953671461014383
6.093333,-0.3488569265707797
6.1,-0.2790915972747918
6.106667,-0.2170779712339137
6.113333,-0.17831945495836488
6.12,-0.15506434519303558
6.126667,-0.13180923542770628
6.133333,-0.07754731264193793
6.14,-0.02328538985616957
6.146667,0.023224829674489023
6.153333,0.04651021953065859
6.16,0.05426192278576836
6.166667,0.07751703255109765
6.173333,0.10077214231642695
6.18,0.131778955336866
6.186667,0.1550340651021953
6.193333,0.17053747161241484
6.2,0.1782891748675246
6.206667,0.18604087812263437
6.213333,0.1782891748675246
6.22,0.16278576835730507
6.226667,0.12402725208175625
6.233333,0.07751703255109765
6.24,0.03875851627554883
6.246667,0.007751703255109765
6.253333,-0.007751703255109765
6.26,-0.03100681302043906
6.266667,-0.05429220287660863
6.273333,-0.06979560938682816
6.28,-0.08529901589704769
6.286667,-0.08529901589704769
6.293333,-0.08529901589704769
6.3,-0.08529901589704769
6.306667,-0.06979560938682816
6.313333,-0.062043906131718396
6.32,-0.031037093111279335
6.326667,-3.028009084027252e-05
6.333333,0.01550340651021953
6.34,0.03875851627554883
6.346667,0.05426192278576836
6.353333,0.05426192278576836
6.36,0.04651021953065859
6.366667,0.01550340651021953
6.373333,-0.03875851627554883
6.38,-0.09305071915215746
6.386667,-0.14731264193792581
6.393333,-0.1938228614685844
6.4,-0.24808478425435276
6.406667,-0.38761544284632854
6.413333,-0.2170779712339137
6.42,0.37205147615442846
6.426667,-0.9379560938682816
6.433333,-0.7131566994700984
6.44,-0.7131566994700984
6.446667,0.627887963663891
6.453333,-0.5038607115821347
6.46,-1.0
6.466667,-1.0
6.473333,-0.8217108251324754
6.48,-0.5348978046934141
6.486667,-0.372112036336109
6.493333,-0.3256018168054504
6.5,-0.31785011355034065
6.506667,-0.31785011355034065
6.513333,-0.3023467070401211
6.52,-0.2635881907645723
6.526667,-0.18607115821347464
6.533333,-0.12405753217259652
6.54,-0.07754731264193793
6.546667,-0.07754731264193793
6.553333,-0.07754731264193793
6.56,-0.06979560938682816
6.566667,-0.05429220287660863
6.573333,-0.0387887963663891
6.58,-0.031037093111279335
6.586667,-0.02328538985616957
6.593333,-0.007781983345950038
6.6,0.023255109765329296
6.606667,0.05426192278576836
6.613333,0.07751703255109765
6.62,0.10852384557153671
6.626667,0.131778955336866
6.633333,0.16278576835730507
6.64,0.19379258137774413
6.646667,0.21704769114307343
6.653333,0.2247993943981832
6.66,0.2247993943981832
6.666667,0.2247993943981832
6.673333,0.21704769114307343
6.68,0.19379258137774413
6.686667,0.16278576835730507
6.693333,0.12402725208175625
6.7,0.08526873580620742
6.706667,0.04651021953065859
6.713333,0.007751703255109765
6.72,-0.023255109765329296
6.726667,-0.046540499621498865
6.733333,-0.05429220287660863
6.74,-0.05429220287660863
6.746667,-0.05429220287660863
6.753333,-0.05429220287660863
6.76,-0.05429220287660863
6.766667,-0.05429220287660863
6.773333,-0.031037093111279335
6.78,-0.015533686601059804
6.786667,-3.028009084027252e-05
6.793333,0.007751703255109765
6.8,0.023255109765329296
6.806667,0.03100681302043906
6.813333,0.023255109765329296
6.82,0.007751703255109765
6.826667,-0.023255109765329296
6.833333,-0.05429220287660863
6.84,-0.08529901589704769
6.846667,-0.11630582891748675
6.853333,-0.14731264193792581
6.86,-0.16281604844814535
6.866667,-0.1705677517032551
6.873333,-0.13956093868281605
6.88,0.6278576835730507
6.886667,-0.8061771385314156
6.893333,-0.627887963663891
6.9,-0.627887963663891
6.906667,0.759666919000757
6.913333,-0.3178198334595004
6.92,-0.8062074186222559
6.926667,-0.8062074186222559
6.933333,-0.6434216502649508
6.94,-0.42637395912187737
6.946667,-0.3333535200605602
6.953333,-0.27133989401968206
6.96,-0.22482967448902347
6.966667,-0.20932626797880394
6.973333,-0.20157456472369417
6.98,-0.1938228614685844
6.986667,-0.12405753217259652
6.993333,-0.05429220287660863
7.0,-0.05429220287660863
7.006667,-0.046540499621498865
7.013333,-0.0387887963663891
7.02,-0.031037093111279335
7.026667,-0.02328538985616957
7.033333,-0.015533686601059804
7.04,-0.007781983345950038
7.046667,0.01550340651021953
7.053333,0.04651021953065859
7.06,0.07751703255109765
7.066667,0.11627554882664648
7.073333,0.1550340651021953
7.08,0.18604087812263437
7.086667,0.20929598788796366
7.093333,0.2480545041635125
7.1,0.27906131718395155
7.106667,0.2945647236941711
7.113333,0.30231642694928085
7.12,0.2868130204390613
7.126667,0.27906131718395155
7.133333,0.2713096139288418
7.14,0.263557910673732
7.146667,0.2480545041635125
7.153333,0.20929598788796366
7.16,0.1550340651021953
7.166667,0.10852384557153671
7.173333,0.06976532929598789
7.18,0.03875851627554883
7.186667,0.007751703255109765
7.193333,-0.023255109765329296
7.2,-0.05429220287660863
7.206667,-0.06979560938682816
7.213333,-0.06979560938682816
7.22,-0.062043906131718396
7.226667,-0.046540499621498865
7.233333,-0.031037093111279335
7.24,-3.028009084027252e-05
7.246667,0.03100681302043906
7.253333,0.06201362604087812
7.26,0.08526873580620742
7.266667,0.07751703255109765
7.273333,0.05426192278576836
7.28,0.023255109765329296
7.286667,-0.023255109765329296
7.293333,-0.06979560938682816
7.3,-0.12405753217259652
7.306667,-0.17831945495836488
7.313333,-0.2170779712339137
7.32,-0.23258137774413323
7.326667,-0.22482967448902347
7.333333,-0.20157456472369417
7.34,0.17050719152157456
7.346667,0.891445874337623
7.353333,-0.6123845571536715
7.36,-0.6123845571536715
7.366667,-0.7519152157456472
7.373333,0.48060560181680545
7.38,-0.43409538228614686
7.386667,-0.7519454958364875
7.393333,-0.7519454958364875
7.4,-0.5814080242240727
7.406667,-0.41087055261165784
7.413333,-0.41087055261165784
7.42,-0.4186222558667676
7.426667,-0.4186222558667676
7.433333,-0.38761544284632854
7.44,-0.24808478425435276
7.446667,-0.07754731264193793
7.453333,-0.007781983345950038
7.46,-0.007751703255109765
7.466667,-0.007751703255109765
7.473333,0.0
7.48,-0.007751703255109765
7.486667,-0.007751703255109765
7.493333,-0.01550340651021953
7.5,-0.007781983345950038
7.506667,0.007751703255109765
7.513333,0.023255109765329296
7.52,0.03875851627554883
7.526667,0.06201362604087812
7.533333,0.08526873580620742
7.54,0.10077214231642695
7.546667,0.12402725208175625
7.553333,0.14728236184708554
7.56,0.17053747161241484
7.566667,0.18604087812263437
7.573333,0.2015442846328539
7.58,0.21704769114307343
7.586667,0.23255109765329296
7.593333,0.23255109765329296
7.6,0.21704769114307343
7.606667,0.18604087812263437
7.613333,0.13953065859197578
7.62,0.09302043906131718
7.626667,0.05426192278576836
7.633333,0.03100681302043906
7.64,0.007751703255109765
7.646667,0.0
7.653333,0.0
7.66,-0.007751703255109765
7.666667,-0.023255109765329296
7.673333,-0.0387887963663891
7.68,-0.05429220287660863
7.686667,-0.062043906131718396
7.693333,-0.062043906131718396
7.7,-0.062043906131718396
7.706667,-0.05429220287660863
7.713333,-0.02328538985616957
7.72,0.007721423164269493
7.726667,0.03100681302043906
7.733333,0.03875851627554883
7.74,0.03100681302043906
7.746667,0.01550340651021953
7.753333,-0.007751703255109765
7.76,-0.03100681302043906
7.766667,-0.05429220287660863
7.773333,-0.10080242240726722
7.78,-0.13956093868281605
7.786667,-0.1705677517032551
7.793333,-0.1938228614685844
7.8,-0.29459500378501136
7.806667,-0.12405753217259652
7.813333,0.44181680545041635
7.82,-0.7829220287660863
7.826667,-0.45735049205147615
7.833333,-0.45735049205147615
7.84,0.891445874337623
7.846667,-0.2713096139288418
7.853333,-0.8139591218773656
7.86,-0.8139591218773656
7.866667,-0.6201665404996215
7.873333,-0.43412566237698713
7.88,-0.41087055261165784
7.886667,-0.41087055261165784
7.893333,-0.41087055261165784
7.9,-0.38761544284632854
7.906667,-0.372112036336109
7.913333,-0.3488569265707797
7.92,-0.31785011355034065
7.926667,-0.2170779712339137
7.933333,-0.12405753217259652
7.94,-0.10080242240726722
7.946667,-0.09305071915215746
7.953333,-0.09305071915215746
7.96,-0.08529901589704769
7.966667,-0.06979560938682816
7.973333,-0.05429220287660863
7.98,-0.0387887963663891
7.986667,-0.02328538985616957
7.993333,-3.028009084027252e-05
8.0,0.03100681302043906
8.006667,0.08526873580620742
8.013333,0.131778955336866
8.02,0.17053747161241484
8.026667,0.1782891748675246
8.033333,0.18604087812263437
8.04,0.19379258137774413
8.046667,0.19379258137774413
8.053333,0.1782891748675246
8.06,0.13953065859197578
8.066667,0.10077214231642695
8.073333,0.06976532929598789
8.08,0.05426192278576836
8.086667,0.04651021953065859
8.093333,0.03875851627554883
8.1,0.023255109765329296
8.106667,0.007751703255109765
8.113333,-0.007751703255109765
8.12,-0.023255109765329296
8.126667,-0.02328538985616957
8.133333,-0.031037093111279335
8.14,-0.031037093111279335
8.146667,-0.031037093111279335
8.153333,-0.02328538985616957
8.16,-0.007781983345950038
8.166667,0.007751703255109765
8.173333,0.023255109765329296
8.18,0.023255109765329296
8.186667,0.023255109765329296
8.193333,0.03100681302043906
8.2,0.05426192278576836
8.206667,0.06976532929598789
8.213333,0.07751703255109765
8.22,0.06976532929598789
8.226667,0.03875851627554883
8.233333,0.007751703255109765
8.24,-0.023255109765329296
8.246667,-0.062043906131718396
8.253333,-0.11630582891748675
8.26,-0.24808478425435276
8.266667,-0.13180923542770628
8.273333,0.21701741105223316
8.28,0.8139288417865254
8.286667,-0.65889477668433
8.293333,-0.5116124148372445
8.3,-0.5116124148372445
8.306667,0.8681907645722937
8.313333,-0.2868130204390613
8.32,-0.8449659348978047
8.326667,-0.8449659348978047
8.333333,-0.7441937925813777
8.34,-0.49613928841786525
8.346667,-0.3333535200605602
8.353333,-0.3256018168054504
8.36,-0.3256018168054504
8.366667,-0.3256018168054504
8.373333,-0.2790915972747918
8.38,-0.20157456472369417
8.386667,-0.12405753217259652
8.393333,-0.09305071915215746
8.4,-0.07754731264193793
8.406667,-0.062043906131718396
8.413333,-0.05429220287660863
8.42,-0.0387887963663891
8.426667,-0.031037093111279335
8.433333,-0.02328538985616957
8.44,-0.007781983345950038
8.446667,0.023255109765329296
8.453333,0.06201362604087812
8.46,0.10077214231642695
8.466667,0.131778955336866
8.473333,0.17053747161241484
8.48,0.20929598788796366
8.486667,0.2480545041635125
8.493333,0.27906131718395155
8.5,0.30231642694928085
8.506667,0.3178198334595004
8.513333,0.3333232399697199
8.52,0.34882664647993944
8.526667,0.3565783497350492
8.533333,0.34882664647993944
8.54,0.3178198334595004
8.546667,0.2713096139288418
8.553333,0.2247993943981832
8.56,0.17053747161241484
8.566667,0.12402725208175625
8.573333,0.08526873580620742
8.58,0.05426192278576836
8.586667,0.03100681302043906
8.593333,0.03100681302043906
8.6,0.04651021953065859
8.606667,0.05426192278576836
8.613333,0.06201362604087812
8.62,0.06976532929598789
8.626667,0.06976532929598789
8.633333,0.06976532929598789
8.64,0.07751703255109765
8.646667,0.07751703255109765
8.653333,0.08526873580620742
8.66,0.10077214231642695
8.666667,0.10077214231642695
8.673333,0.07751703255109765
8.68,0.03875851627554883
8.686667,-0.01550340651021953
8.693333,-0.06979560938682816
8.7,-0.12405753217259652
8.706667,-0.17831945495836488
8.713333,-0.23258137774413323
8.72,-0.27133989401968206
8.726667,-0.2868433005299016
8.733333,-0.25583648750946253
8.74,0.6976230128690386
8.746667,-0.8294322482967449
8.753333,-0.8294322482967449
8.76,-0.860439061317184
8.766667,0.5038607115821347
8.773333,-0.5348675246025738
8.78,-0.9844965934897805
8.786667,-0.9844965934897805
8.793333,-0.767448902346707
8.8,-0.41087055261165784
8.806667,-0.23258137774413323
8.813333,-0.18607115821347464
8.82,-0.17831945495836488
8.826667,-0.16281604844814535
8.833333,-0.15506434519303558
8.84,-0.15506434519303558
8.846667,-0.1938228614685844
8.853333,-0.240333080999243
8.86,-0.240333080999243
8.866667,-0.20157456472369417
8.873333,-0.05429220287660863
8.88,0.06198334595003785
8.886667,0.14728236184708554
8.893333,0.2015442846328539
8.9,0.24030280090840272
8.906667,0.2480545041635125
8.913333,0.2480545041635125
8.92,0.24030280090840272
8.926667,0.263557910673732
8.933333,0.263557910673732
8.94,0.24030280090840272
8.946667,0.2247993943981832
8.953333,0.20929598788796366
8.96,0.2015442846328539
8.966667,0.20929598788796366
8.973333,0.2247993943981832
8.98,0.23255109765329296
8.986667,0.24030280090840272
8.993333,0.23255109765329296
9.0,0.23255109765329296
9.006667,0.21704769114307343
9.013333,0.20929598788796366
9.02,0.2015442846328539
9.026667,0.18604087812263437
9.033333,0.16278576835730507
9.04,0.131778955336866
9.046667,0.09302043906131718
9.053333,0.03875851627554883
9.06,-0.01550340651021953
9.066667,-0.05429220287660863
9.073333,-0.07754731264193793
9.08,-0.08529901589704769
9.086667,-0.08529901589704769
9.093333,-0.07754731264193793
9.1,-0.05429220287660863
9.106667,-0.031037093111279335
9.113333,-3.028009084027252e-05
9.12,0.01550340651021953
9.126667,0.007751703255109765
9.133333,-0.007751703255109765
9.14,-0.03100681302043906
9.146667,-0.046540499621498865
9.153333,-0.05429220287660863
9.16,-0.062043906131718396
9.166667,-0.07754731264193793
9.173333,-0.09305071915215746
9.18,-0.11630582891748675
9.186667,-0.10855412566237699
9.193333,-0.05429220287660863
9.2,-0.9534897804693414
9.206667,-0.5736260408781226
9.213333,-0.5736260408781226
9.22,-0.7209084027252082
9.226667,0.5348675246025738
9.233333,-0.3798334595003785
9.24,-0.7209386828160484
9.246667,-0.7209386828160484
9.253333,-0.5271461014383043
9.26,-0.3333535200605602
9.266667,-0.29459500378501136
9.273333,-0.2868433005299016
9.28,-0.2635881907645723
9.286667,-0.20932626797880394
9.293333,-0.16281604844814535
9.3,-0.16281604844814535
9.306667,-0.1705677517032551
9.313333,-0.1705677517032551
9.32,-0.15506434519303558
9.326667,-0.10855412566237699
9.333333,-0.007781983345950038
9.34,0.01550340651021953
9.346667,0.023255109765329296
9.353333,0.023255109765329296
9.36,0.023255109765329296
9.366667,0.023255109765329296
9.373333,0.03100681302043906
9.38,0.04651021953065859
9.386667,0.06201362604087812
9.393333,0.07751703255109765
9.4,0.09302043906131718
9.406667,0.11627554882664648
9.413333,0.1550340651021953
9.42,0.18604087812263437
9.426667,0.20929598788796366
9.433333,0.2247993943981832
9.44,0.2247993943981832
9.446667,0.2247993943981832
9.453333,0.21704769114307343
9.46,0.2015442846328539
9.466667,0.17053747161241484
9.473333,0.14728236184708554
9.48,0.12402725208175625
9.486667,0.10852384557153671
9.493333,0.09302043906131718
9.5,0.06201362604087812
9.506667,0.03875851627554883
9.513333,0.01550340651021953
9.52,0.0
9.526667,-0.023255109765329296
9.533333,-0.046540499621498865
9.54,-0.062043906131718396
9.546667,-0.05429220287660863
9.553333,-0.02328538985616957
9.56,0.007721423164269493
9.566667,0.03100681302043906
9.573333,0.04651021953065859
9.58,0.05426192278576836
9.586667,0.04651021953065859
9.593333,0.03100681302043906
9.6,-0.007751703255109765
9.606667,-0.05426192278576836
9.613333,-0.10080242240726722
9.62,-0.14731264193792581
9.626667,-0.17831945495836488
9.633333,-0.20157456472369417
9.64,-0.2170779712339137
9.646667,-0.2170779712339137
9.653333,-0.1705677517032551
9.66,0.8914155942467827
9.666667,-0.6511430734292203
9.673333,-0.6511430734292203
9.68,-0.7751703255109765
9.686667,0.5426192278576836
9.693333,-0.38758516275548827
9.7,-0.767448902346707
9.706667,-0.767448902346707
9.713333,-0.6434216502649508
9.72,-0.4573807721423164
9.726667,-0.34110522331566995
9.733333,-0.27133989401968206
9.74,-0.2170779712339137
9.746667,-0.1938228614685844
9.753333,-0.1705677517032551
9.76,-0.10855412566237699
9.766667,-3.028009084027252e-05
9.773333,0.05426192278576836
9.78,0.05426192278576836
9.786667,0.04651021953065859
9.793333,0.04651021953065859
9.8,0.05426192278576836
9.806667,0.06201362604087812
9.813333,0.06976532929598789
9.82,0.07751703255109765
9.826667,0.07751703255109765
9.833333,0.08526873580620742
9.84,0.10077214231642695
9.846667,0.131778955336866
9.853333,0.1550340651021953
9.86,0.17053747161241484
9.866667,0.19379258137774413
9.873333,0.20929598788796366
9.88,0.23255109765329296
9.886667,0.2480545041635125
9.893333,0.24030280090840272
9.9,0.21704769114307343
9.906667,0.19379258137774413
9.913333,0.1782891748675246
9.92,0.16278576835730507
9.926667,0.14728236184708554
9.933333,0.12402725208175625
9.94,0.10077214231642695
9.946667,0.07751703255109765
9.953333,0.06976532929598789
9.96,0.05426192278576836
9.966667,0.03100681302043906
9.973333,0.0
9.98,-0.023255109765329296
9.986667,-0.0387887963663891
9.993333,-0.046540499621498865
10.0,-0.046540499621498865
10.006667,-0.046540499621498865
10.013333,-0.031037093111279335
10.02,-0.007781983345950038
10.026667,0.023255109765329296
10.033333,0.04651021953065859
10.04,0.06976532929598789
10.046667,0.06976532929598789
10.053333,0.04651021953065859
10.06,0.007751703255109765
10.066667,-0.03875851627554883
10.073333,-0.08529901589704769
10.08,-0.13956093868281605
10.086667,-0.1938228614685844
10.093333,-0.23258137774413323
10.1,-0.25583648750946253
10.106667,-0.24808478425435276
10.113333,-0.20932626797880394
10.12,0.519333838001514
10.126667,-0.8139288417865254
10.133333,-0.48060560181680545
10.14,-0.48060560181680545
10.146667,0.9379560938682816
10.153333,-0.1782891748675246
10.16,-0.7286903860711582
10.166667,-0.7286903860711582
10.173333,-0.6899318697956094
10.18,-0.5271461014383043
10.186667,-0.34110522331566995
10.193333,-0.2635881907645723
10.2,-0.22482967448902347
10.206667,-0.1938228614685844
10.213333,-0.13956093868281605
10.22,-0.10855412566237699
10.226667,-0.10855412566237699
10.233333,-0.15506434519303558
10.24,-0.20157456472369417
10.246667,-0.20157456472369417
10.253333,-0.14731264193792581
10.26,-0.07754731264193793
10.266667,-0.015533686601059804
10.273333,0.015473126419379259
10.28,0.03100681302043906
10.286667,0.04651021953065859
10.293333,0.05426192278576836
10.3,0.06201362604087812
10.306667,0.09302043906131718
10.313333,0.12402725208175625
10.32,0.14728236184708554
10.326667,0.1782891748675246
10.333333,0.20929598788796366
10.34,0.24030280090840272
10.346667,0.2713096139288418
10.353333,0.2868130204390613
10.36,0.2945647236941711
10.366667,0.27906131718395155
10.373333,0.23255109765329296
10.38,0.1782891748675246
10.386667,0.131778955336866
10.393333,0.10852384557153671
10.4,0.08526873580620742
10.406667,0.06201362604087812
10.413333,0.03875851627554883
10.42,0.03100681302043906
10.426667,0.03875851627554883
10.433333,0.04651021953065859
10.44,0.023255109765329296
10.446667,-0.007751703255109765
10.453333,-0.03875851627554883
10.46,-0.05429220287660863
10.466667,-0.05429220287660863
10.473333,-0.0387887963663891
10.48,-3.028009084027252e-05
10.486667,0.04651021953065859
10.493333,0.10077214231642695
10.5,0.13953065859197578
10.506667,0.1550340651021953
10.513333,0.131778955336866
10.52,0.09302043906131718
10.526667,0.03875851627554883
10.533333,-0.01550340651021953
10.54,-0.07754731264193793
10.546667,-0.13180923542770628
10.553333,-0.17831945495836488
10.56,-0.1938228614685844
10.566667,-0.18607115821347464
10.573333,-0.16281604844814535
10.58,0.37205147615442846
10.586667,-0.9147009841029523
10.593333,-0.5426192278576836
10.6,-0.5426192278576836
10.606667,0.8681907645722937
10.613333,-0.2247993943981832
10.62,-0.7596971990915973
10.626667,-0.7596971990915973
10.633333,-0.604663133989402
10.64,-0.4573807721423164
10.646667,-0.4186222558667676
10.653333,-0.40311884935654807
10.66,-0.31785011355034065
10.666667,-0.25583648750946253
10.673333,-0.240333080999243
10.68,-0.240333080999243
10.686667,-0.240333080999243
10.693333,-0.18607115821347464
10.7,-0.11630582891748675
10.706667,-0.062043906131718396
10.713333,-0.007781983345950038
10.72,0.03100681302043906
10.726667,0.06201362604087812
10.733333,0.07751703255109765
10.74,0.07751703255109765
10.746667,0.06976532929598789
10.753333,0.05426192278576836
10.76,0.03875851627554883
10.766667,0.03875851627554883
10.773333,0.03100681302043906
10.78,0.03875851627554883
10.786667,0.06201362604087812
10.793333,0.09302043906131718
10.8,0.13953065859197578
10.806667,0.18604087812263437
10.813333,0.2247993943981832
10.82,0.24030280090840272
10.826667,0.24030280090840272
10.833333,0.2247993943981832
10.84,0.1782891748675246
10.846667,0.131778955336866
10.853333,0.08526873580620742
10.86,0.04651021953065859
10.866667,0.023255109765329296
10.873333,0.01550340651021953
10.88,0.023255109765329296
10.886667,0.023255109765329296
10.893333,0.023255109765329296
10.9,0.01550340651021953
10.906667,0.007751703255109765
10.913333,0.0
10.92,-0.007751703255109765
10.926667,-0.007751703255109765
10.933333,-0.007751703255109765
10.94,0.0
10.946667,0.01550340651021953
10.953333,0.03875851627554883
10.96,0.06201362604087812
10.966667,0.07751703255109765
10.973333,0.06976532929598789
10.98,0.03100681302043906
10.986667,-0.01550340651021953
10.993333,-0.06979560938682816
11.0,-0.11630582891748675
11.006667,-0.15506434519303558
11.013333,-0.1938228614685844
11.02,-0.23258137774413323
11.026667,-0.24808478425435276
11.033333,-0.23258137774413323
11.04,0.4728236184708554
11.046667,-0.9379560938682816
11.053333,-0.8294322482967449
11.06,-0.8294322482967449
11.066667,0.6046328538985617
11.073333,-0.3798334595003785
11.08,-0.8217108251324754
11.086667,-0.8217108251324754
11.093333,-0.7441937925813777
11.1,-0.5969114307342922
11.106667,-0.503890991672975
11.113333,-0.4883875851627555
11.12,-0.4186222558667676
11.126667,-0.2790915972747918
11.133333,-0.1938228614685844
11.14,-0.1938228614685844
11.146667,-0.22482967448902347
11.153333,-0.2635881907645723
11.16,-0.2635881907645723
11.166667,-0.20157456472369417
11.173333,-0.10080242240726722
11.18,-0.06979560938682816
11.186667,-0.05429220287660863
11.193333,-0.0387887963663891
11.2,-0.007781983345950038
11.206667,0.023255109765329296
11.213333,0.04651021953065859
11.22,0.06201362604087812
11.226667,0.09302043906131718
11.233333,0.10852384557153671
11.24,0.131778955336866
11.246667,0.1550340651021953
11.253333,0.17053747161241484
11.26,0.17053747161241484
11.266667,0.1782891748675246
11.273333,0.18604087812263437
11.28,0.19379258137774413
11.286667,0.2015442846328539
11.293333,0.19379258137774413
11.3,0.1782891748675246
11.306667,0.14728236184708554
11.313333,0.10852384557153671
11.32,0.06976532929598789
11.326667,0.03875851627554883
11.333333,0.023255109765329296
11.34,0.0
11.346667,-0.01550340651021953
11.353333,-0.031037093111279335
11.36,-0.031037093111279335
11.366667,-0.031037093111279335
11.373333,-0.02328538985616957
11.38,-0.015533686601059804
11.386667,-0.015533686601059804
11.393333,-0.007781983345950038
11.4,0.023255109765329296
11.406667,0.05426192278576836
11.413333,0.07751703255109765
11.42,0.08526873580620742
11.426667,0.06976532929598789
11.433333,0.05426192278576836
11.44,0.03100681302043906
11.446667,-0.007751703255109765
11.453333,-0.05426192278576836
11.46,-0.10080242240726722
11.466667,-0.13956093868281605
11.473333,-0.16281604844814535
11.48,-0.1705677517032551
11.486667,-0.17831945495836488
11.493333,-0.13956093868281605
11.5,0.782891748675246
11.506667,-0.7829220287660863
11.513333,-0.7829220287660863
11.52,-0.7906737320211961
11.526667,0.5891294473883422
11.533333,-0.45735049205147615
11.54,-0.9147312641937926
11.546667,-0.9147312641937926
11.553333,-0.767448902346707
11.56,-0.5659046177138531
11.566667,-0.4883875851627555
11.573333,-0.38761544284632854
11.58,-0.20157456472369417
11.586667,-0.09305071915215746
11.593333,-0.09305071915215746
11.6,-0.12405753217259652
11.606667,-0.15506434519303558
11.613333,-0.15506434519303558
11.62,-0.13956093868281605
11.626667,-0.046540499621498865
11.633333,0.09299015897047691
11.64,0.11627554882664648
11.646667,0.12402725208175625
11.653333,0.131778955336866
11.66,0.131778955336866
11.666667,0.131778955336866
11.673333,0.13953065859197578
11.68,0.13953065859197578
11.686667,0.14728236184708554
11.693333,0.14728236184708554
11.7,0.1550340651021953
11.706667,0.17053747161241484
11.713333,0.18604087812263437
11.72,0.2015442846328539
11.726667,0.21704769114307343
11.733333,0.2247993943981832
11.74,0.2247993943981832
11.746667,0.2247993943981832
11.753333,0.21704769114307343
11.76,0.2015442846328539
11.766667,0.18604087812263437
11.773333,0.1550340651021953
11.78,0.10852384557153671
11.786667,0.07751703255109765
11.793333,0.05426192278576836
11.8,0.03100681302043906
11.806667,0.007751703255109765
11.813333,-0.01550340651021953
11.82,-0.0387887963663891
11.826667,-0.0387887963663891
11.833333,-0.007781983345950038
11.84,0.023255109765329296
11.846667,0.06201362604087812
11.853333,0.09302043906131718
11.86,0.10852384557153671
11.866667,0.11627554882664648
11.873333,0.10077214231642695
11.88,0.06201362604087812
11.886667,0.01550340651021953
11.893333,-0.04651021953065859
11.9,-0.10080242240726722
11.906667,-0.14731264193792581
11.913333,-0.18607115821347464
11.92,-0.20932626797880394
11.926667,-0.2170779712339137
11.933333,-0.22482967448902347
11.94,-0.20157456472369417
11.946667,0.5735957607872824
11.953333,-0.7984254352763058
11.96,-0.5813777441332324
11.966667,-0.5813777441332324
11.973333,0.8681907645722937
11.98,-0.14728236184708554
11.986667,-0.635669947009841
11.993333,-0.635669947009841
12.0,-0.5581529144587434
12.006667,-0.4651324753974262
12.013333,-0.4418773656320969
12.02,-0.4418773656320969
12.026667,-0.44962906888720666
12.033333,-0.44962906888720666
12.04,-0.42637395912187737
12.046667,-0.31785011355034065
12.053333,-0.13180923542770628
12.06,-3.028009084027252e-05
12.066667,0.04651021953065859
12.073333,0.06201362604087812
12.08,0.06976532929598789
12.086667,0.06976532929598789
12.093333,0.06201362604087812
12.1,0.04651021953065859
12.106667,0.04651021953065859
12.113333,0.04651021953065859
12.12,0.05426192278576836
12.126667,0.06976532929598789
12.133333,0.07751703255109765
12.14,0.09302043906131718
12.146667,0.10852384557153671
12.153333,0.131778955336866
12.16,0.16278576835730507
12.166667,0.19379258137774413
12.173333,0.21704769114307343
12.18,0.2247993943981832
12.186667,0.2247993943981832
12.193333,0.23255109765329296
12.2,0.2247993943981832
12.206667,0.19379258137774413
12.213333,0.14728236184708554
12.22,0.09302043906131718
12.226667,0.05426192278576836
12.233333,0.03100681302043906
12.24,0.023255109765329296
12.246667,0.01550340651021953
12.253333,0.01550340651021953
12.26,0.023255109765329296
12.266667,0.03100681302043906
12.273333,0.04651021953065859
12.28,0.05426192278576836
12.286667,0.06201362604087812
12.293333,0.06976532929598789
12.3,0.07751703255109765
12.306667,0.08526873580620742
12.313333,0.08526873580620742
12.32,0.07751703255109765
12.326667,0.06976532929598789
12.333333,0.05426192278576836
12.34,0.023255109765329296
12.346667,-0.023255109765329296
12.353333,-0.06979560938682816
12.36,-0.10855412566237699
12.366667,-0.13180923542770628
12.373333,-0.15506434519303558
12.38,-0.1705677517032551
12.386667,-0.16281604844814535
12.393333,0.5115821347464042
12.4,-0.8139288417865254
12.406667,-0.5968811506434519
12.413333,-0.5968811506434519
12.42,0.7906737320211961
12.426667,-0.30231642694928085
12.433333,-0.8139591218773656
12.44,-0.8139591218773656
12.446667,-0.635669947009841
12.453333,-0.3333535200605602
12.46,-0.1705677517032551
12.466667,-0.13956093868281605
12.473333,-0.13180923542770628
12.48,-0.13180923542770628
12.486667,-0.13956093868281605
12.493333,-0.18607115821347464
12.5,-0.240333080999243
12.506667,-0.240333080999243
12.513333,-0.1938228614685844
12.52,-0.02328538985616957
12.526667,0.1395003785011355
12.533333,0.14728236184708554
12.54,0.1550340651021953
12.546667,0.13953065859197578
12.553333,0.12402725208175625
12.56,0.11627554882664648
12.566667,0.12402725208175625
12.573333,0.13953065859197578
12.58,0.1550340651021953
12.586667,0.17053747161241484
12.593333,0.1782891748675246
12.6,0.2015442846328539
12.606667,0.2247993943981832
12.613333,0.2480545041635125
12.62,0.263557910673732
12.626667,0.25580620741862226
12.633333,0.2247993943981832
12.64,0.2015442846328539
12.646667,0.1782891748675246
12.653333,0.1550340651021953
12.66,0.131778955336866
12.666667,0.10077214231642695
12.673333,0.07751703255109765
12.68,0.06201362604087812
12.686667,0.05426192278576836
12.693333,0.03875851627554883
12.7,0.01550340651021953
12.706667,-0.007751703255109765
12.713333,-0.023255109765329296
12.72,-0.007781983345950038
12.726667,0.01550340651021953
12.733333,0.03875851627554883
12.74,0.06201362604087812
12.746667,0.08526873580620742
12.753333,0.11627554882664648
12.76,0.12402725208175625
12.766667,0.11627554882664648
12.773333,0.07751703255109765
12.78,0.023255109765329296
12.786667,-0.03875851627554883
12.793333,-0.09305071915215746
12.8,-0.13180923542770628
12.806667,-0.16281604844814535
12.813333,-0.1705677517032551
12.82,-0.17831945495836488
12.826667,-0.16281604844814535
12.833333,0.32554125662376987
12.84,-0.9379560938682816
12.846667,-0.5658743376230129
12.853333,-0.5658743376230129
12.86,0.8294322482967449
12.866667,-0.2868130204390613
12.873333,-0.8217108251324754
12.88,-0.8217108251324754
12.886667,-0.6589250567751703
12.893333,-0.42637395912187737
12.9,-0.31785011355034065
12.906667,-0.31785011355034065
12.913333,-0.31785011355034065
12.92,-0.25583648750946253
12.926667,-0.15506434519303558
12.933333,-0.08529901589704769
12.94,-0.07754731264193793
12.946667,-0.06979560938682816
12.953333,-0.06979560938682816
12.96,-0.007781983345950038
12.966667,0.04651021953065859
12.973333,0.04651021953065859
12.98,0.04651021953065859
12.986667,0.04651021953065859
12.993333,0.05426192278576836
13.0,0.06976532929598789
13.006667,0.09302043906131718
13.013333,0.10852384557153671
13.02,0.131778955336866
13.026667,0.14728236184708554
13.033333,0.17053747161241484
13.04,0.18604087812263437
13.046667,0.2015442846328539
13.053333,0.20929598788796366
13.06,0.20929598788796366
13.066667,0.20929598788796366
13.073333,0.21704769114307343
13.08,0.20929598788796366
13.086667,0.18604087812263437
13.093333,0.16278576835730507
13.1,0.13953065859197578
13.106667,0.11627554882664648
13.113333,0.08526873580620742
13.12,0.04651021953065859
13.126667,0.023255109765329296
13.133333,0.007751703255109765
13.14,0.01550340651021953
13.146667,0.023255109765329296
13.153333,0.03100681302043906
13.16,0.04651021953065859
13.166667,0.06201362604087812
13.173333,0.07751703255109765
13.18,0.09302043906131718
13.186667,0.08526873580620742
13.193333,0.06976532929598789
13.2,0.04651021953065859
13.206667,0.03100681302043906
13.213333,0.01550340651021953
13.22,0.0
13.226667,-0.023255109765329296
13.233333,-0.046540499621498865
13.24,-0.06979560938682816
13.246667,-0.09305071915215746
13.253333,-0.10855412566237699
13.26,-0.11630582891748675
13.266667,0.3177895533686601
13.273333,-0.9612112036336109
13.28,-0.5426192278576836
13.286667,-0.5426192278576836
13.293333,-0.5968811506434519
13.3,0.6743981831945496
13.306667,-0.39533686601059803
13.313333,-0.8139591218773656
13.32,-0.8139591218773656
13.326667,-0.5659046177138531
13.333333,-0.24808478425435276
13.34,-0.14731264193792581
13.346667,-0.13956093868281605
13.353333,-0.10080242240726722
13.36,-0.0387887963663891
13.366667,0.007721423164269493
13.373333,0.007751703255109765
13.38,-0.04651021953065859
13.386667,-0.10855412566237699
13.393333,-0.10855412566237699
13.4,-0.062043906131718396
13.406667,-0.0387887963663891
13.413333,-0.02328538985616957
13.42,-0.015533686601059804
13.426667,-0.007781983345950038
13.433333,0.007751703255109765
13.44,0.03100681302043906
13.446667,0.05426192278576836
13.453333,0.07751703255109765
13.46,0.10077214231642695
13.466667,0.131778955336866
13.473333,0.1782891748675246
13.48,0.20929598788796366
13.486667,0.21704769114307343
13.493333,0.19379258137774413
13.5,0.17053747161241484
13.506667,0.14728236184708554
13.513333,0.131778955336866
13.52,0.10852384557153671
13.526667,0.06976532929598789
13.533333,0.03100681302043906
13.54,0.007751703255109765
13.546667,0.007751703255109765
13.553333,0.0
13.56,-0.007751703255109765
13.566667,-0.023255109765329296
13.573333,-0.046540499621498865
13.58,-0.062043906131718396
13.586667,-0.05429220287660863
13.593333,-0.02328538985616957
13.6,0.015473126419379259
13.606667,0.05426192278576836
13.613333,0.08526873580620742
13.62,0.10852384557153671
13.626667,0.12402725208175625
13.633333,0.131778955336866
13.64,0.11627554882664648
13.646667,0.06976532929598789
13.653333,0.023255109765329296
13.66,-0.023255109765329296
13.666667,-0.05429220287660863
13.673333,-0.062043906131718396
13.68,-0.06979560938682816
13.686667,-0.09305071915215746
13.693333,-0.11630582891748675
13.7,-0.13180923542770628
13.706667,-0.11630582891748675
13.713333,0.7286298258894777
13.72,-0.7751703255109765
13.726667,-0.7751703255109765
13.733333,-0.8681907645722937
13.74,0.4030885692657078
13.746667,-0.496109008327025
13.753333,-0.7752006056018168
13.76,-0.7752006056018168
13.766667,-0.6201665404996215
13.773333,-0.3953671461014383
13.78,-0.3023467070401211
13.786667,-0.27133989401968206
13.793333,-0.24808478425435276
13.8,-0.22482967448902347
13.806667,-0.1938228614685844
13.813333,-0.12405753217259652
13.82,-0.062043906131718396
13.826667,-0.031037093111279335
13.833333,-0.02328538985616957
13.84,-0.007781983345950038
13.846667,0.06201362604087812
13.853333,0.131778955336866
13.86,0.1782891748675246
13.866667,0.2015442846328539
13.873333,0.20929598788796366
13.88,0.20929598788796366
13.886667,0.2015442846328539
13.893333,0.20929598788796366
13.9,0.2480545041635125
13.906667,0.27906131718395155
13.913333,0.3100681302043906
13.92,0.3410749432248297
13.926667,0.37208175624526874
13.933333,0.41084027252081756
13.94,0.4263436790310371
13.946667,0.4030885692657078
13.953333,0.36433005299015897
13.96,0.3100681302043906
13.966667,0.25580620741862226
13.973333,0.19379258137774413
13.98,0.131778955336866
13.986667,0.06976532929598789
13.993333,0.03100681302043906
14.0,0.01550340651021953
14.006667,0.007751703255109765
14.013333,0.007751703255109765
14.02,0.007751703255109765
14.026667,0.0
14.033333,0.0
14.04,0.007751703255109765
14.046667,0.007751703255109765
14.053333,0.01550340651021953
14.06,0.01550340651021953
14.066667,0.007751703255109765
14.073333,-0.007751703255109765
14.08,-0.01550340651021953
14.086667,-0.031037093111279335
14.093333,-0.05429220287660863
14.1,-0.09305071915215746
14.106667,-0.13956093868281605
14.113333,-0.17831945495836488
14.12,-0.20157456472369417
14.126667,-0.22482967448902347
14.133333,-0.240333080999243
14.14,-0.25583648750946253
14.146667,-0.2635881907645723
14.153333,0.10074186222558668
14.16,0.8526873580620742
14.166667,-0.6821498864496593
14.173333,-0.6821498864496593
14.18,-0.9999697199091597
14.186667,0.03875851627554883
14.193333,-0.8216805450416351
14.2,0.9301741105223316
14.206667,0.9301741105223316
14.213333,-0.8759727479182438
14.22,-0.604663133989402
14.226667,-0.4651324753974262
14.233333,-0.38761544284632854
14.24,-0.3566086298258895
14.246667,-0.3488569265707797
14.253333,-0.34110522331566995
14.26,-0.31785011355034065
14.266667,-0.2790915972747918
14.273333,-0.25583648750946253
14.28,-0.23258137774413323
14.286667,-0.20157456472369417
14.293333,-0.1938228614685844
14.3,-0.18607115821347464
14.306667,-0.16281604844814535
14.313333,-0.13180923542770628
14.32,-0.10080242240726722
14.326667,-0.07754731264193793
14.333333,-0.05429220287660863
14.34,-0.02328538985616957
14.346667,-3.028009084027252e-05
14.353333,0.03875851627554883
14.36,0.09302043906131718
14.366667,0.13953065859197578
14.373333,0.17053747161241484
14.38,0.19379258137774413
14.386667,0.21704769114307343
14.393333,0.23255109765329296
14.4,0.2480545041635125
14.406667,0.23255109765329296
14.413333,0.18604087812263437
14.42,0.13953065859197578
14.426667,0.10077214231642695
14.433333,0.08526873580620742
14.44,0.10077214231642695
14.446667,0.11627554882664648
14.453333,0.131778955336866
14.46,0.1550340651021953
14.466667,0.1782891748675246
14.473333,0.2015442846328539
14.48,0.2247993943981832
14.486667,0.2247993943981832
14.493333,0.23255109765329296
14.5,0.24030280090840272
14.506667,0.25580620741862226
14.513333,0.27906131718395155
14.52,0.2945647236941711
14.526667,0.30231642694928085
14.533333,0.27906131718395155
14.54,0.23255109765329296
14.546667,0.16278576835730507
14.553333,0.09302043906131718
14.56,0.023255109765329296
14.566667,-0.04651021953065859
14.573333,-0.10855412566237699
14.58,-0.15506434519303558
14.586667,-0.17831945495836488
14.593333,-0.17831945495836488
14.6,0.22476911430734292
14.606667,-0.9069492808478425
14.613333,-0.45735049205147615
14.62,-0.45735049205147615
14.626667,-0.9302043906131718
14.633333,0.04651021953065859
14.64,-0.6046328538985617
14.646667,-0.7209386828160484
14.653333,-0.7209386828160484
14.66,-0.6589250567751703
14.666667,-0.5969114307342922
14.673333,-0.5891597274791824
14.68,-0.5271461014383043
14.686667,-0.3798637395912188
14.693333,-0.2790915972747918
14.7,-0.2790915972747918
14.706667,-0.31785011355034065
14.713333,-0.3566086298258895
14.72,-0.3566086298258895
14.726667,-0.3488569265707797
14.733333,-0.3333535200605602
14.74,-0.29459500378501136
14.746667,-0.25583648750946253
14.753333,-0.22482967448902347
14.76,-0.1938228614685844
14.766667,-0.1705677517032551
14.773333,-0.13180923542770628
14.78,-0.08529901589704769
14.786667,-0.046540499621498865
14.793333,-0.02328538985616957
14.8,-0.007781983345950038
14.806667,0.0
14.813333,0.007751703255109765
14.82,0.023255109765329296
14.826667,0.03875851627554883
14.833333,0.03875851627554883
14.84,0.023255109765329296
14.846667,0.01550340651021953
14.853333,0.0
14.86,-0.007751703255109765
14.866667,-0.01550340651021953
14.873333,-0.031037093111279335
14.88,-0.046540499621498865
14.886667,-0.05429220287660863
14.893333,-0.046540499621498865
14.9,-0.0387887963663891
14.906667,-0.0387887963663891
14.913333,-0.046540499621498865
14.92,-0.05429220287660863
14.926667,-0.046540499621498865
14.933333,-0.0387887963663891
14.94,-0.02328538985616957
14.946667,-3.028009084027252e-05
14.953333,0.023255109765329296
14.96,0.05426192278576836
14.966667,0.07751703255109765
14.973333,0.08526873580620742
14.98,0.07751703255109765
14.986667,0.05426192278576836
14.993333,0.023255109765329296
15.0,0.0
15.006667,-0.023255109765329296
15.013333,-0.046540499621498865
15.02,-0.07754731264193793
15.026667,-0.10855412566237699
15.033333,-0.12405753217259652
15.04,-0.10855412566237699
15.046667,0.5503406510219531
15.053333,-0.8139288417865254
15.06,-0.527115821347464
15.066667,-0.527115821347464
15.073333,-0.9612112036336109
15.08,0.09302043906131718
15.086667,-0.6743981831945496
15.093333,-0.9534897804693414
15.1,-0.9534897804693414
15.106667,-0.7752006056018168
15.113333,-0.5116426949280848
15.12,-0.38761544284632854
15.126667,-0.34110522331566995
15.133333,-0.25583648750946253
15.14,-0.10080242240726722
15.146667,0.007721423164269493
15.153333,0.023255109765329296
15.16,0.023255109765329296
15.166667,0.0
15.173333,-0.04651021953065859
15.18,-0.11630582891748675
15.186667,-0.14731264193792581
15.193333,-0.15506434519303558
15.2,-0.15506434519303558
15.206667,-0.13180923542770628
15.213333,-0.10855412566237699
15.22,-0.08529901589704769
15.226667,-0.062043906131718396
15.233333,-0.0387887963663891
15.24,-0.007781983345950038
15.246667,0.023255109765329296
15.253333,0.03875851627554883
15.26,0.04651021953065859
15.266667,0.04651021953065859
15.273333,0.05426192278576836
15.28,0.06201362604087812
15.286667,0.06976532929598789
15.293333,0.06201362604087812
15.3,0.04651021953065859
15.306667,0.03100681302043906
15.313333,0.03100681302043906
15.32,0.01550340651021953
15.326667,0.0
15.333333,-0.023255109765329296
15.34,-0.0387887963663891
15.346667,-0.0387887963663891
15.353333,-0.02328538985616957
15.36,-0.007781983345950038
15.366667,0.0
15.373333,0.0
15.38,0.0
15.386667,0.0
15.393333,0.0
15.4,0.007751703255109765
15.406667,0.03100681302043906
15.413333,0.06201362604087812
15.42,0.09302043906131718
15.426667,0.11627554882664648
15.433333,0.11627554882664648
15.44,0.10077214231642695
15.446667,0.07751703255109765
15.453333,0.05426192278576836
15.46,0.03100681302043906
15.466667,-0.007751703255109765
15.473333,-0.04651021953065859
15.48,-0.06979560938682816
15.486667,-0.062043906131718396
15.493333,0.4495685087055261
15.5,-0.7751703255109765
15.506667,-0.4495987887963664
15.513333,-0.4495987887963664
15.52,0.9457077971233914
15.526667,-0.10077214231642695
15.533333,-0.5659046177138531
15.54,-0.5659046177138531
15.546667,-0.4418773656320969
15.553333,-0.3100984102952309
15.56,-0.2790915972747918
15.566667,-0.2635881907645723
15.573333,-0.20157456472369417
15.58,-0.15506434519303558
15.586667,-0.14731264193792581
15.593333,-0.14731264193792581
15.6,-0.15506434519303558
15.606667,-0.15506434519303558
15.613333,-0.11630582891748675
15.62,-0.08529901589704769
15.626667,-0.07754731264193793
15.633333,-0.07754731264193793
15.64,-0.06979560938682816
15.646667,-0.062043906131718396
15.653333,-0.05429220287660863
15.66,-0.046540499621498865
15.666667,-0.0387887963663891
15.673333,-0.031037093111279335
15.68,-0.02328538985616957
15.686667,-0.015533686601059804
15.693333,-3.028009084027252e-05
15.7,0.023255109765329296
15.706667,0.05426192278576836
15.713333,0.08526873580620742
15.72,0.12402725208175625
15.726667,0.16278576835730507
15.733333,0.2015442846328539
15.74,0.2247993943981832
15.746667,0.23255109765329296
15.753333,0.21704769114307343
15.76,0.1782891748675246
15.766667,0.131778955336866
15.773333,0.08526873580620742
15.78,0.04651021953065859
15.786667,0.007751703255109765
15.793333,-0.023255109765329296
15.8,-0.0387887963663891
15.806667,-0.0387887963663891
15.813333,-0.031037093111279335
15.82,-0.015533686601059804
15.826667,-0.007781983345950038
15.833333,0.0
15.84,0.01550340651021953
15.846667,0.03875851627554883
15.853333,0.06201362604087812
15.86,0.07751703255109765
15.866667,0.09302043906131718
15.873333,0.07751703255109765
15.88,0.05426192278576836
15.886667,0.023255109765329296
15.893333,-0.01550340651021953
15.9,-0.05429220287660863
15.906667,-0.10080242240726722
15.913333,-0.13956093868281605
15.92,-0.10855412566237699
15.926667,0.10074186222558668
15.933333,0.6201362604087812
15.94,-0.6821498864496593
15.946667,-0.3410749432248297
15.953333,-0.3410749432248297
15.96,-0.8759424678274035
15.966667,0.03100681302043906
15.973333,-0.5813777441332324
15.98,-0.6589250567751703
15.986667,-0.6589250567751703
15.993333,-0.503890991672975
16.0,-0.29459500378501136
16.006667,-0.2170779712339137
16.013333,-0.1938228614685844
16.02,-0.15506434519303558
16.026667,-0.10080242240726722
16.033333,-0.062043906131718396
16.04,-0.046540499621498865
16.046667,-0.02328538985616957
16.053333,0.015473126419379259
16.06,0.023255109765329296
16.066667,0.03100681302043906
16.073333,0.03100681302043906
16.08,0.023255109765329296
16.086667,0.023255109765329296
16.093333,0.023255109765329296
16.1,0.03100681302043906
16.106667,0.03875851627554883
16.113333,0.05426192278576836
16.12,0.06201362604087812
16.126667,0.07751703255109765
16.133333,0.10077214231642695
16.14,0.131778955336866
16.146667,0.17053747161241484
16.153333,0.2015442846328539
16.16,0.21704769114307343
16.166667,0.21704769114307343
16.173333,0.2247993943981832
16.18,0.2247993943981832
16.186667,0.21704769114307343
16.193333,0.19379258137774413
16.2,0.14728236184708554
16.206667,0.09302043906131718
16.213333,0.04651021953065859
16.22,0.01550340651021953
16.226667,-0.01550340651021953
16.233333,-0.046540499621498865
16.24,-0.062043906131718396
16.246667,-0.062043906131718396
16.253333,-0.0387887963663891
16.26,-3.028009084027252e-05
16.266667,0.03875851627554883
16.273333,0.07751703255109765
16.28,0.10077214231642695
16.286667,0.10852384557153671
16.293333,0.11627554882664648
16.3,0.10077214231642695
16.306667,0.08526873580620742
16.313333,0.06201362604087812
16.32,0.03875851627554883
16.326667,0.007751703255109765
16.333333,-0.01550340651021953
16.34,-0.031037093111279335
16.346667,-0.046540499621498865
16.353333,-0.05429220287660863
16.36,-0.07754731264193793
16.366667,-0.09305071915215746
16.373333,-0.06979560938682816
16.38,0.8371536714610144
16.386667,-0.7519152157456472
16.393333,-0.7519152157456472
16.4,-0.8759424678274035
16.406667,0.5116124148372445
16.413333,-0.3333232399697199
16.42,-0.7131869795609387
16.426667,-0.7131869795609387
16.433333,-0.5969114307342922
16.44,-0.34110522331566995
16.446667,-0.1938228614685844
16.453333,-0.1938228614685844
16.46,-0.20157456472369417
16.466667,-0.2170779712339137
16.473333,-0.22482967448902347
16.48,-0.22482967448902347
16.486667,-0.17831945495836488
16.493333,-0.10855412566237699
16.5,-0.046540499621498865
16.506667,-0.007781983345950038
16.513333,-0.007751703255109765
16.52,-0.01550340651021953
16.526667,-0.015533686601059804
16.533333,-0.007781983345950038
16.54,0.01550340651021953
16.546667,0.03875851627554883
16.553333,0.06201362604087812
16.56,0.07751703255109765
16.566667,0.10077214231642695
16.573333,0.131778955336866
16.58,0.1550340651021953
16.586667,0.17053747161241484
16.593333,0.1782891748675246
16.6,0.17053747161241484
16.606667,0.16278576835730507
16.613333,0.1550340651021953
16.62,0.14728236184708554
16.626667,0.131778955336866
16.633333,0.11627554882664648
16.64,0.10077214231642695
16.646667,0.09302043906131718
16.653333,0.07751703255109765
16.66,0.04651021953065859
16.666667,0.007751703255109765
16.673333,-0.03875851627554883
16.68,-0.05429220287660863
16.686667,-0.046540499621498865
16.693333,-0.031037093111279335
16.7,-0.015533686601059804
16.706667,0.007721423164269493
16.713333,0.03100681302043906
16.72,0.06201362604087812
16.726667,0.08526873580620742
16.733333,0.08526873580620742
16.74,0.07751703255109765
16.746667,0.05426192278576836
16.753333,0.03875851627554883
16.76,0.01550340651021953
16.766667,0.0
16.773333,0.0
16.78,-0.007751703255109765
16.786667,-0.03100681302043906
16.793333,-0.062043906131718396
16.8,-0.10080242240726722
16.806667,-0.13180923542770628
16.813333,0.14725208175624527
16.82,0.8991975775927328
16.826667,-0.6433913701741105
16.833333,-0.6433913701741105
16.84,-0.7209084027252082
16.846667,0.6046328538985617
16.853333,-0.4263436790310371
16.86,-0.8837244511733535
16.866667,-0.8837244511733535
16.873333,-0.6821801665404996
16.88,-0.3256018168054504
16.886667,-0.1705677517032551
16.893333,-0.1705677517032551
16.9,-0.2170779712339137
16.906667,-0.29459500378501136
16.913333,-0.3256018168054504
16.92,-0.3256018168054504
16.926667,-0.23258137774413323
16.933333,-0.06979560938682816
16.94,0.007721423164269493
16.946667,0.01550340651021953
16.953333,0.01550340651021953
16.96,0.01550340651021953
16.966667,0.01550340651021953
16.973333,0.01550340651021953
16.98,0.023255109765329296
16.986667,0.023255109765329296
16.993333,0.01550340651021953
17.0,0.01550340651021953
17.006667,0.007751703255109765
17.013333,0.01550340651021953
17.02,0.03875851627554883
17.026667,0.06976532929598789
17.033333,0.10077214231642695
17.04,0.12402725208175625
17.046667,0.14728236184708554
17.053333,0.14728236184708554
17.06,0.14728236184708554
17.066667,0.13953065859197578
17.073333,0.10852384557153671
17.08,0.06976532929598789
17.086667,0.03875851627554883
17.093333,0.01550340651021953
17.1,0.007751703255109765
17.106667,0.007751703255109765
17.113333,0.0
17.12,-0.01550340651021953
17.126667,-0.02328538985616957
17.133333,-0.031037093111279335
17.14,-0.0387887963663891
17.146667,-0.046540499621498865
17.153333,-0.05429220287660863
17.16,-0.05429220287660863
17.166667,-0.02328538985616957
17.173333,0.023224829674489023
17.18,0.06201362604087812
17.186667,0.08526873580620742
17.193333,0.06976532929598789
17.2,0.03100681302043906
17.206667,-0.007751703255109765
17.213333,-0.06201362604087812
17.22,-0.11630582891748675
17.226667,-0.16281604844814535
17.233333,-0.20932626797880394
17.24,-0.23258137774413323
17.246667,-0.240333080999243
17.253333,-0.2170779712339137
17.26,0.17825889477668433
17.266667,0.9767146101438304
17.273333,-0.5193641180923543
17.28,-0.5193641180923543
17.286667,-0.8681907645722937
17.293333,0.20929598788796366
17.3,-0.38758516275548827
17.306667,-0.42637395912187737
17.313333,-0.42637395912187737
17.32,-0.40311884935654807
17.326667,-0.34110522331566995
17.333333,-0.3333535200605602
17.34,-0.31785011355034065
17.346667,-0.25583648750946253
17.353333,-0.20932626797880394
17.36,-0.20157456472369417
17.366667,-0.1938228614685844
17.373333,-0.18607115821347464
17.38,-0.10855412566237699
17.386667,-0.031037093111279335
17.393333,-0.02328538985616957
17.4,-0.02328538985616957
17.406667,-0.02328538985616957
17.413333,-0.02328538985616957
17.42,-0.007781983345950038
17.426667,0.01550340651021953
17.433333,0.03875851627554883
17.44,0.05426192278576836
17.446667,0.06976532929598789
17.453333,0.09302043906131718
17.46,0.11627554882664648
17.466667,0.13953065859197578
17.473333,0.14728236184708554
17.48,0.14728236184708554
17.486667,0.1550340651021953
17.493333,0.16278576835730507
17.5,0.17053747161241484
17.506667,0.1782891748675246
17.513333,0.1782891748675246
17.52,0.1782891748675246
17.526667,0.1782891748675246
17.533333,0.1782891748675246
17.54,0.1550340651021953
17.546667,0.11627554882664648
17.553333,0.07751703255109765
17.56,0.04651021953065859
17.566667,0.03100681302043906
17.573333,0.007751703255109765
17.58,-0.007751703255109765
17.586667,-0.023255109765329296
17.593333,-0.031037093111279335
17.6,-0.02328538985616957
17.606667,-0.007781983345950038
17.613333,0.007751703255109765
17.62,0.023255109765329296
17.626667,0.03875851627554883
17.633333,0.06201362604087812
17.64,0.07751703255109765
17.646667,0.07751703255109765
17.653333,0.06976532929598789
17.66,0.04651021953065859
17.666667,0.023255109765329296
17.673333,0.0
17.68,-0.03100681302043906
17.686667,-0.06979560938682816
17.693333,-0.12405753217259652
17.7,-0.1705677517032551
17.706667,-0.29459500378501136
17.713333,-3.028009084027252e-05
17.72,0.6666464799394398
17.726667,-0.6821498864496593
17.733333,-0.4495987887963664
17.74,-0.4495987887963664
17.746667,-0.9767146101438304
17.753333,-0.007751703255109765
17.76,-0.5581226343679031
17.766667,-0.6279182437547313
17.773333,-0.6279182437547313
17.78,-0.5193943981831946
17.786667,-0.3566086298258895
17.793333,-0.2790915972747918
17.8,-0.24808478425435276
17.806667,-0.23258137774413323
17.813333,-0.1938228614685844
17.82,-0.10080242240726722
17.826667,-0.031037093111279335
17.833333,-0.031037093111279335
17.84,-0.08529901589704769
17.846667,-0.11630582891748675
17.853333,-0.12405753217259652
17.86,-0.11630582891748675
17.866667,-0.09305071915215746
17.873333,-0.06979560938682816
17.88,-0.05429220287660863
17.886667,-0.031037093111279335
17.893333,0.007721423164269493
17.9,0.05426192278576836
17.906667,0.10077214231642695
17.913333,0.13953065859197578
17.92,0.17053747161241484
17.926667,0.19379258137774413
17.933333,0.2015442846328539
17.94,0.20929598788796366
17.946667,0.20929598788796366
17.953333,0.20929598788796366
17.96,0.21704769114307343
17.966667,0.2247993943981832
17.973333,0.2247993943981832
17.98,0.20929598788796366
17.986667,0.18604087812263437
17.993333,0.1550340651021953
18.0,0.131778955336866
18.006667,0.10077214231642695
18.013333,0.06201362604087812
18.02,0.01550340651021953
18.026667,-0.01550340651021953
18.033333,-0.02328538985616957
18.04,-0.007781983345950038
18.046667,0.007751703255109765
18.053333,0.01550340651021953
18.06,0.007751703255109765
18.066667,0.007751703255109765
18.073333,0.01550340651021953
18.08,0.03875851627554883
18.086667,0.05426192278576836
18.093333,0.06201362604087812
18.1,0.06201362604087812
18.106667,0.04651021953065859
18.113333,0.023255109765329296
18.12,0.007751703255109765
18.126667,-0.01550340651021953
18.133333,-0.046540499621498865
18.14,-0.07754731264193793
18.146667,-0.11630582891748675
18.153333,-0.14731264193792581
18.16,-0.14731264193792581
18.166667,-0.13180923542770628
18.173333,-0.10080242240726722
18.18,-0.031037093111279335
18.186667,-0.9302346707040121
18.193333,-0.5348675246025738
18.2,-0.5348675246025738
18.206667,-0.7751703255109765
18.213333,0.32557153671461014
18.22,-0.5193641180923543
18.226667,-0.7131869795609387
18.233333,-0.7131869795609387
18.24,-0.4883875851627555
18.246667,-0.25583648750946253
18.253333,-0.240333080999243
18.26,-0.240333080999243
18.266667,-0.24808478425435276
18.273333,-0.24808478425435276
18.28,-0.22482967448902347
18.286667,-0.14731264193792581
18.293333,-0.08529901589704769
18.3,-0.062043906131718396
18.306667,-0.02328538985616957
18.313333,0.07748675246025738
18.32,0.19379258137774413
18.326667,0.20929598788796366
18.333333,0.21704769114307343
18.34,0.2015442846328539
18.346667,0.17053747161241484
18.353333,0.13953065859197578
18.36,0.11627554882664648
18.366667,0.10852384557153671
18.373333,0.09302043906131718
18.38,0.07751703255109765
18.386667,0.06976532929598789
18.393333,0.07751703255109765
18.4,0.10852384557153671
18.406667,0.14728236184708554
18.413333,0.1782891748675246
18.42,0.2015442846328539
18.426667,0.19379258137774413
18.433333,0.17053747161241484
18.44,0.14728236184708554
18.446667,0.10852384557153671
18.453333,0.06976532929598789
18.46,0.023255109765329296
18.466667,-0.01550340651021953
18.473333,-0.046540499621498865
18.48,-0.062043906131718396
18.486667,-0.062043906131718396
18.493333,-0.05429220287660863
18.5,-0.046540499621498865
18.506667,-0.05429220287660863
18.513333,-0.062043906131718396
18.52,-0.06979560938682816
18.526667,-0.07754731264193793
18.533333,-0.05429220287660863
18.54,-0.007781983345950038
18.546667,0.03100681302043906
18.553333,0.06976532929598789
18.56,0.10077214231642695
18.566667,0.10852384557153671
18.573333,0.10852384557153671
18.58,0.09302043906131718
18.586667,0.05426192278576836
18.593333,-0.007751703255109765
18.6,-0.06201362604087812
18.606667,-0.10855412566237699
18.613333,-0.14731264193792581
18.62,-0.1705677517032551
18.626667,-0.18607115821347464
18.633333,-0.18607115821347464
18.64,-0.16281604844814535
18.646667,0.6898713096139288
18.653333,-0.8449356548069644
18.66,-0.7906737320211961
18.666667,-0.7906737320211961
18.673333,0.627887963663891
18.68,-0.41084027252081756
18.686667,-0.8837244511733535
18.693333,-0.8837244511733535
18.7,-0.7286903860711582
18.706667,-0.47288417865253596
18.713333,-0.36436033308099924
18.72,-0.3488569265707797
18.726667,-0.3333535200605602
18.733333,-0.31785011355034065
18.74,-0.3100984102952309
18.746667,-0.3100984102952309
18.753333,-0.31785011355034065
18.76,-0.31785011355034065
18.766667,-0.2868433005299016
18.773333,-0.1938228614685844
18.78,-0.031037093111279335
18.786667,0.023224829674489023
18.793333,0.04651021953065859
18.8,0.05426192278576836
18.806667,0.04651021953065859
18.813333,0.03100681302043906
18.82,0.023255109765329296
18.826667,0.01550340651021953
18.833333,0.01550340651021953
18.84,0.007751703255109765
18.846667,0.0
18.853333,0.007751703255109765
18.86,0.03875851627554883
18.866667,0.08526873580620742
18.873333,0.131778955336866
18.88,0.16278576835730507
18.886667,0.16278576835730507
18.893333,0.1550340651021953
18.9,0.14728236184708554
18.906667,0.12402725208175625
18.913333,0.07751703255109765
18.92,0.023255109765329296
18.926667,-0.03100681302043906
18.933333,-0.062043906131718396
18.94,-0.062043906131718396
18.946667,-0.062043906131718396
18.953333,-0.05429220287660863
18.96,-0.062043906131718396
18.966667,-0.062043906131718396
18.973333,-0.062043906131718396
18.98,-0.05429220287660863
18.986667,-0.031037093111279335
18.993333,-0.007781983345950038
19.0,0.01550340651021953
19.006667,0.03875851627554883
19.013333,0.06976532929598789
19.02,0.10077214231642695
19.026667,0.11627554882664648
19.033333,0.10077214231642695
19.04,0.05426192278576836
19.046667,0.007751703255109765
19.053333,-0.03875851627554883
19.06,-0.06979560938682816
19.066667,-0.09305071915215746
19.073333,-0.10855412566237699
19.08,-0.11630582891748675
19.086667,-0.11630582891748675
19.093333,-0.10080242240726722
19.1,-0.05429220287660863
19.106667,0.8216502649507949
19.113333,-0.7364118092354277
19.12,-0.7364118092354277
19.126667,0.9302043906131718
19.133333,0.06201362604087812
19.14,-0.5038607115821347
19.146667,-0.503890991672975
19.153333,-0.4651324753974262
19.16,-0.43412566237698713
19.166667,-0.3953671461014383
19.173333,-0.38761544284632854
19.18,-0.3488569265707797
19.186667,-0.2635881907645723
19.193333,-0.16281604844814535
19.2,-0.13956093868281605
19.206667,-0.13180923542770628
19.213333,-0.10080242240726722
19.22,-0.09305071915215746
19.226667,-0.07754731264193793
19.233333,-0.07754731264193793
19.24,-0.07754731264193793
19.246667,-0.07754731264193793
19.253333,-0.0387887963663891
19.26,0.007721423164269493
19.266667,0.03100681302043906
19.273333,0.03875851627554883
19.28,0.03100681302043906
19.286667,0.023255109765329296
19.293333,0.04651021953065859
19.3,0.08526873580620742
19.306667,0.10852384557153671
19.313333,0.12402725208175625
19.32,0.13953065859197578
19.326667,0.17053747161241484
19.333333,0.20929598788796366
19.34,0.2480545041635125
19.346667,0.2480545041635125
19.353333,0.20929598788796366
19.36,0.16278576835730507
19.366667,0.11627554882664648
19.373333,0.06976532929598789
19.38,0.03100681302043906
19.386667,-0.007751703255109765
19.393333,-0.03875851627554883
19.4,-0.05429220287660863
19.406667,-0.0387887963663891
19.413333,-0.02328538985616957
19.42,-0.007781983345950038
19.426667,0.0
19.433333,-0.007751703255109765
19.44,0.0
19.446667,0.01550340651021953
19.453333,0.03100681302043906
19.46,0.03875851627554883
19.466667,0.03875851627554883
19.473333,0.04651021953065859
19.48,0.05426192278576836
19.486667,0.06201362604087812
19.493333,0.05426192278576836
19.5,0.03100681302043906
19.506667,0.0
19.513333,-0.023255109765329296
19.52,-0.046540499621498865
19.526667,-0.062043906131718396
19.533333,-0.08529901589704769
19.54,-0.10080242240726722
19.546667,-0.11630582891748675
19.553333,-0.09305071915215746
19.56,0.8061468584405753
19.566667,-0.7131566994700984
19.573333,-0.6899015897047691
19.58,-0.6899015897047691
19.586667,0.7054049962149886
19.593333,-0.30231642694928085
19.6,-0.7286903860711582
19.606667,-0.7286903860711582
19.613333,-0.604663133989402
19.62,-0.47288417865253596
19.626667,-0.4418773656320969
19.633333,-0.43412566237698713
19.64,-0.372112036336109
19.646667,-0.240333080999243
19.653333,-0.10080242240726722
19.66,-0.0387887963663891
19.666667,-0.0387887963663891
19.673333,-0.031037093111279335
19.68,-3.028009084027252e-05
19.686667,0.01550340651021953
19.693333,0.03100681302043906
19.7,0.03100681302043906
19.706667,0.03100681302043906
19.713333,0.03100681302043906
19.72,0.04651021953065859
19.726667,0.07751703255109765
19.733333,0.09302043906131718
19.74,0.10077214231642695
19.746667,0.12402725208175625
19.753333,0.14728236184708554
19.76,0.18604087812263437
19.766667,0.20929598788796366
19.773333,0.2247993943981832
19.78,0.2247993943981832
19.786667,0.21704769114307343
19.793333,0.20929598788796366
19.8,0.2015442846328539
19.806667,0.19379258137774413
19.813333,0.1782891748675246
19.82,0.17053747161241484
19.826667,0.14728236184708554
19.833333,0.131778955336866
19.84,0.10852384557153671
19.846667,0.09302043906131718
19.853333,0.08526873580620742
19.86,0.07751703255109765
19.866667,0.06201362604087812
19.873333,0.03875851627554883
19.88,0.0
19.886667,-0.01550340651021953
19.893333,-0.031037093111279335
19.9,-0.02328538985616957
19.906667,-3.028009084027252e-05
19.913333,0.023255109765329296
19.92,0.04651021953065859
19.926667,0.07751703255109765
19.933333,0.10077214231642695
19.94,0.11627554882664648
19.946667,0.11627554882664648
19.953333,0.10852384557153671
19.96,0.06976532929598789
19.966667,0.01550340651021953
19.973333,-0.03875851627554883
19.98,-0.07754731264193793
19.986667,-0.10080242240726722
19.993333,-0.11630582891748675
20.0,-0.12405753217259652
20.006667,-0.12405753217259652
20.013333,-0.0387887963663891
20.02,-0.9379863739591219
20.026667,-0.8836941710825132
20.033333,-0.8836941710825132
20.04,0.48060560181680545
20.046667,-0.34882664647993944
20.053333,-0.5736563209689629
20.06,-0.5736563209689629
20.066667,-0.4418773656320969
20.073333,-0.3100984102952309
20.08,-0.3100984102952309
20.086667,-0.31785011355034065
20.093333,-0.31785011355034065
20.1,-0.22482967448902347
20.106667,-0.13180923542770628
20.113333,-0.13180923542770628
20.12,-0.1705677517032551
20.126667,-0.20932626797880394
20.133333,-0.20932626797880394
20.14,-0.13180923542770628
20.146667,0.015473126419379259
20.153333,0.14728236184708554
20.16,0.17053747161241484
20.166667,0.1782891748675246
20.173333,0.16278576835730507
20.18,0.13953065859197578
20.186667,0.12402725208175625
20.193333,0.11627554882664648
20.2,0.12402725208175625
20.206667,0.14728236184708554
20.213333,0.17053747161241484
20.22,0.19379258137774413
20.226667,0.23255109765329296
20.233333,0.27906131718395155
20.24,0.3100681302043906
20.246667,0.3333232399697199
20.253333,0.3178198334595004
20.26,0.2868130204390613
20.266667,0.24030280090840272
20.273333,0.2015442846328539
20.28,0.16278576835730507
20.286667,0.12402725208175625
20.293333,0.08526873580620742
20.3,0.04651021953065859
20.306667,0.023255109765329296
20.313333,0.023255109765329296
20.32,0.03100681302043906
20.326667,0.03875851627554883
20.333333,0.03875851627554883
20.34,0.03100681302043906
20.346667,0.03100681302043906
20.353333,0.03875851627554883
20.36,0.05426192278576836
20.366667,0.04651021953065859
20.373333,0.03875851627554883
20.38,0.023255109765329296
20.386667,0.01550340651021953
20.393333,0.01550340651021953
20.4,0.01550340651021953
20.406667,0.01550340651021953
20.413333,0.01550340651021953
20.42,0.0
20.426667,-0.023255109765329296
20.433333,-0.05429220287660863
20.44,-0.08529901589704769
20.446667,-0.11630582891748675
20.453333,-0.22482967448902347
20.46,-0.14731264193792581
20.466667,0.24027252081756245
20.473333,-0.9767146101438304
20.48,-0.527115821347464
20.486667,-0.527115821347464
20.493333,-0.7519152157456472
20.5,0.39533686601059803
20.506667,-0.5193641180923543
20.513333,-0.8139591218773656
20.52,-0.8139591218773656
20.526667,-0.6511733535200606
20.533333,-0.4418773656320969
20.54,-0.372112036336109
20.546667,-0.34110522331566995
20.553333,-0.25583648750946253
20.56,-0.13956093868281605
20.566667,-0.08529901589704769
20.573333,-0.08529901589704769
20.58,-0.13956093868281605
20.586667,-0.1938228614685844
20.593333,-0.1938228614685844
20.6,-0.17831945495836488
20.606667,-0.15506434519303558
20.613333,-0.12405753217259652
20.62,-0.09305071915215746
20.626667,-0.06979560938682816
20.633333,-0.05429220287660863
20.64,-0.02328538985616957
20.646667,0.015473126419379259
20.653333,0.05426192278576836
20.66,0.08526873580620742
20.666667,0.10852384557153671
20.673333,0.12402725208175625
20.68,0.131778955336866
20.686667,0.13953065859197578
20.693333,0.1550340651021953
20.7,0.16278576835730507
20.706667,0.1782891748675246
20.713333,0.18604087812263437
20.72,0.18604087812263437
20.726667,0.19379258137774413
20.733333,0.2015442846328539
20.74,0.20929598788796366
20.746667,0.20929598788796366
20.753333,0.18604087812263437
20.76,0.13953065859197578
20.766667,0.08526873580620742
20.773333,0.03875851627554883
20.78,0.0
20.786667,-0.007751703255109765
20.793333,-0.01550340651021953
20.8,-0.007781983345950038
20.806667,0.007751703255109765
20.813333,0.03875851627554883
20.82,0.06201362604087812
20.826667,0.07751703255109765
20.833333,0.09302043906131718
20.84,0.08526873580620742
20.846667,0.06976532929598789
20.853333,0.04651021953065859
20.86,0.01550340651021953
20.866667,0.0
20.873333,-0.007751703255109765
20.88,-0.023255109765329296
20.886667,-0.046540499621498865
20.893333,-0.08529901589704769
20.9,-0.11630582891748675
20.906667,-0.13956093868281605
20.913333,-0.16281604844814535
20.92,-0.17831945495836488
20.926667,0.14725208175624527
20.933333,0.9147009841029523
20.94,-0.6201362604087812
20.946667,-0.6201362604087812
20.953333,-0.7519152157456472
20.96,0.5503709311127933
20.966667,-0.39533686601059803
20.973333,-0.7907040121120363
20.98,-0.7907040121120363
20.986667,-0.6124148372445117
20.993333,-0.3798637395912188
21.0,-0.29459500378501136
21.006667,-0.2868433005299016
21.013333,-0.2868433005299016
21.02,-0.22482967448902347
21.026667,-0.18607115821347464
21.033333,-0.17831945495836488
21.04,-0.17831945495836488
21.046667,-0.18607115821347464
21.053333,-0.18607115821347464
21.06,-0.15506434519303558
21.066667,-0.09305071915215746
21.073333,-0.031037093111279335
21.08,-0.007781983345950038
21.086667,0.007751703255109765
21.093333,0.023255109765329296
21.1,0.023255109765329296
21.106667,0.03875851627554883
21.113333,0.07751703255109765
21.12,0.09302043906131718
21.126667,0.10077214231642695
21.133333,0.10852384557153671
21.14,0.12402725208175625
21.146667,0.14728236184708554
21.153333,0.17053747161241484
21.16,0.19379258137774413
21.166667,0.2015442846328539
21.173333,0.19379258137774413
21.18,0.18604087812263437
21.186667,0.1782891748675246
21.193333,0.1550340651021953
21.2,0.131778955336866
21.206667,0.09302043906131718
21.213333,0.05426192278576836
21.22,0.01550340651021953
21.226667,0.0
21.233333,-0.007751703255109765
21.24,-0.023255109765329296
21.246667,-0.031037093111279335
21.253333,-0.046540499621498865
21.26,-0.05429220287660863
21.266667,-0.0387887963663891
21.273333,-0.015533686601059804
21.28,0.023224829674489023
21.286667,0.05426192278576836
21.293333,0.08526873580620742
21.3,0.11627554882664648
21.306667,0.14728236184708554
21.313333,0.16278576835730507
21.32,0.14728236184708554
21.326667,0.10852384557153671
21.333333,0.06201362604087812
21.34,0.01550340651021953
21.346667,-0.023255109765329296
21.353333,-0.062043906131718396
21.36,-0.08529901589704769
21.366667,-0.10855412566237699
21.373333,-0.12405753217259652
21.38,-0.12405753217259652
21.386667,0.17050719152157456
21.393333,0.9689629068887207
21.4,-0.5503709311127933
21.406667,-0.5503709311127933
21.413333,-0.8991975775927328
21.42,0.14728236184708554
21.426667,-0.5193641180923543
21.433333,-0.5891597274791824
21.44,-0.5891597274791824
21.446667,-0.5348978046934141
21.453333,-0.3953671461014383
21.46,-0.3953671461014383
21.466667,-0.3953671461014383
21.473333,-0.2790915972747918
21.48,-0.1705677517032551
21.486667,-0.07754731264193793
21.493333,-0.07754731264193793
21.5,-0.08529901589704769
21.506667,-0.08529901589704769
21.513333,-0.062043906131718396
21.52,-0.031037093111279335
21.526667,-0.031037093111279335
21.533333,-0.031037093111279335
21.54,-0.007781983345950038
21.546667,0.03100681302043906
21.553333,0.07751703255109765
21.56,0.10077214231642695
21.566667,0.11627554882664648
21.573333,0.13953065859197578
21.58,0.16278576835730507
21.586667,0.19379258137774413
21.593333,0.20929598788796366
21.6,0.21704769114307343
21.606667,0.2247993943981832
21.613333,0.24030280090840272
21.62,0.263557910673732
21.626667,0.27906131718395155
21.633333,0.27906131718395155
21.64,0.2480545041635125
21.646667,0.21704769114307343
21.653333,0.18604087812263437
21.66,0.14728236184708554
21.666667,0.11627554882664648
21.673333,0.08526873580620742
21.68,0.05426192278576836
21.686667,0.04651021953065859
21.693333,0.04651021953065859
21.7,0.05426192278576836
21.706667,0.06201362604087812
21.713333,0.04651021953065859
21.72,0.01550340651021953
21.726667,-0.007751703255109765
21.733333,-0.007751703255109765
21.74,0.007751703255109765
21.746667,0.03875851627554883
21.753333,0.05426192278576836
21.76,0.06976532929598789
21.766667,0.07751703255109765
21.773333,0.08526873580620742
21.78,0.08526873580620742
21.786667,0.06201362604087812
21.793333,0.03100681302043906
21.8,0.0
21.806667,-0.03100681302043906
21.813333,-0.062043906131718396
21.82,-0.08529901589704769
21.826667,-0.10855412566237699
21.833333,-0.1938228614685844
21.84,-0.10080242240726722
21.846667,0.3177895533686601
21.853333,-0.8991975775927328
21.86,-0.4651021953065859
21.866667,-0.4651021953065859
21.873333,-0.891445874337623
21.88,0.06976532929598789
21.886667,-0.5581226343679031
21.893333,-0.5969114307342922
21.9,-0.5969114307342922
21.906667,-0.49613928841786525
21.913333,-0.3953671461014383
21.92,-0.38761544284632854
21.926667,-0.3256018168054504
21.933333,-0.18607115821347464
21.94,-0.062043906131718396
21.946667,-0.007781983345950038
21.953333,-0.007751703255109765
21.96,-0.03100681302043906
21.966667,-0.08529901589704769
21.973333,-0.10080242240726722
21.98,-0.10855412566237699
21.986667,-0.08529901589704769
21.993333,-0.05429220287660863
22.0,-0.0387887963663891
22.006667,-0.02328538985616957
22.013333,-0.007781983345950038
22.02,0.023255109765329296
22.026667,0.06201362604087812
22.033333,0.10852384557153671
22.04,0.14728236184708554
22.046667,0.16278576835730507
22.053333,0.17053747161241484
22.06,0.1782891748675246
22.066667,0.2015442846328539
22.073333,0.21704769114307343
22.08,0.24030280090840272
22.086667,0.25580620741862226
22.093333,0.263557910673732
22.1,0.25580620741862226
22.106667,0.24030280090840272
22.113333,0.2247993943981832
22.12,0.19379258137774413
22.126667,0.1550340651021953
22.133333,0.10077214231642695
22.14,0.04651021953065859
22.146667,0.007751703255109765
22.153333,-0.007751703255109765
22.16,0.007751703255109765
22.166667,0.03100681302043906
22.173333,0.04651021953065859
22.18,0.05426192278576836
22.186667,0.06201362604087812
22.193333,0.08526873580620742
22.2,0.11627554882664648
22.206667,0.13953065859197578
22.213333,0.1550340651021953
22.22,0.16278576835730507
22.226667,0.16278576835730507
22.233333,0.14728236184708554
22.24,0.10852384557153671
22.246667,0.06201362604087812
22.253333,0.007751703255109765
22.26,-0.06201362604087812
22.266667,-0.12405753217259652
22.273333,-0.1705677517032551
22.28,-0.20157456472369417
22.286667,-0.20932626797880394
22.293333,-0.20157456472369417
22.3,-0.15506434519303558
22.306667,0.751884935654807
22.313333,-0.8294322482967449
22.32,-0.8294322482967449
22.326667,-0.9457077971233914
22.333333,0.37208175624526874
22.34,-0.4728538985616957
22.346667,-0.767448902346707
22.353333,-0.767448902346707
22.36,-0.5891597274791824
22.366667,-0.3953671461014383
22.373333,-0.34110522331566995
22.38,-0.3333535200605602
22.386667,-0.2635881907645723
22.393333,-0.13180923542770628
22.4,-0.0387887963663891
22.406667,-0.0387887963663891
22.413333,-0.08529901589704769
22.42,-0.13956093868281605
22.426667,-0.13956093868281605
22.433333,-0.11630582891748675
22.44,-0.05429220287660863
22.446667,-0.007781983345950038
22.453333,0.03100681302043906
22.46,0.04651021953065859
22.466667,0.06201362604087812
22.473333,0.07751703255109765
22.48,0.08526873580620742
22.486667,0.09302043906131718
22.493333,0.12402725208175625
22.5,0.13953065859197578
22.506667,0.14728236184708554
22.513333,0.1550340651021953
22.52,0.17053747161241484
22.526667,0.18604087812263437
22.533333,0.19379258137774413
22.54,0.18604087812263437
22.546667,0.18604087812263437
22.553333,0.1782891748675246
22.56,0.17053747161241484
22.566667,0.14728236184708554
22.573333,0.10852384557153671
22.58,0.06976532929598789
22.586667,0.03875851627554883
22.593333,0.01550340651021953
22.6,0.0
22.606667,-0.007751703255109765
22.613333,-0.01550340651021953
22.62,-0.015533686601059804
22.626667,-3.028009084027252e-05
22.633333,0.01550340651021953
22.64,0.03100681302043906
22.646667,0.03875851627554883
22.653333,0.05426192278576836
22.66,0.08526873580620742
22.666667,0.11627554882664648
22.673333,0.131778955336866
22.68,0.12402725208175625
22.686667,0.10852384557153671
22.693333,0.09302043906131718
22.7,0.07751703255109765
22.706667,0.04651021953065859
22.713333,-0.007751703255109765
22.72,-0.07751703255109765
22.726667,-0.12405753217259652
22.733333,-0.14731264193792581
22.74,-0.15506434519303558
22.746667,-0.15506434519303558
22.753333,-0.13956093868281605
22.76,0.5658440575321726
22.766667,-0.8526873580620742
22.773333,-0.6666464799394398
22.78,-0.6666464799394398
22.786667,0.7286601059803179
22.793333,-0.3178198334595004
22.8,-0.7907040121120363
22.806667,-0.7907040121120363
22.813333,-0.5969114307342922
22.82,-0.3023467070401211
22.826667,-0.18607115821347464
22.833333,-0.1705677517032551
22.84,-0.15506434519303558
22.846667,-0.13956093868281605
22.853333,-0.12405753217259652
22.86,-0.10080242240726722
22.866667,-0.07754731264193793
22.873333,-0.06979560938682816
22.88,-0.06979560938682816
22.886667,-0.06979560938682816
22.893333,-0.062043906131718396
22.9,-0.031037093111279335
22.906667,0.007721423164269493
22.913333,0.03875851627554883
22.92,0.06976532929598789
22.926667,0.09302043906131718
22.933333,0.12402725208175625
22.94,0.13953065859197578
22.946667,0.18604087812263437
22.953333,0.21704769114307343
22.96,0.23255109765329296
22.966667,0.25580620741862226
22.973333,0.2713096139288418
22.98,0.2945647236941711
22.986667,0.30231642694928085
22.993333,0.30231642694928085
23.0,0.2945647236941711
23.006667,0.2713096139288418
23.013333,0.2480545041635125
23.02,0.21704769114307343
23.026667,0.17053747161241484
23.033333,0.12402725208175625
23.04,0.08526873580620742
23.046667,0.06201362604087812
23.053333,0.05426192278576836
23.06,0.05426192278576836
23.066667,0.05426192278576836
23.073333,0.05426192278576836
23.08,0.05426192278576836
23.086667,0.04651021953065859
23.093333,0.03875851627554883
23.1,0.023255109765329296
23.106667,0.01550340651021953
23.113333,0.03100681302043906
23.12,0.06201362604087812
23.126667,0.09302043906131718
23.133333,0.12402725208175625
23.14,0.131778955336866
23.146667,0.12402725208175625
23.153333,0.11627554882664648
23.16,0.10077214231642695
23.166667,0.06201362604087812
23.173333,0.007751703255109765
23.18,-0.04651021953065859
23.186667,-0.08529901589704769
23.193333,-0.09305071915215746
23.2,-0.10080242240726722
23.206667,-0.10080242240726722
23.213333,0.2325208175624527
23.22,0.9689629068887207
23.226667,-0.5658743376230129
23.233333,-0.5658743376230129
23.24,-0.9302043906131718
23.246667,0.08526873580620742
23.253333,-0.5503709311127933
23.26,-0.5814080242240727
23.266667,-0.5814080242240727
23.273333,-0.4573807721423164
23.28,-0.3256018168054504
23.286667,-0.31785011355034065
23.293333,-0.25583648750946253
23.3,-0.13956093868281605
23.306667,-0.062043906131718396
23.313333,-0.062043906131718396
23.32,-0.13180923542770628
23.326667,-0.20932626797880394
23.333333,-0.20932626797880394
23.34,-0.12405753217259652
23.346667,-3.028009084027252e-05
23.353333,0.03100681302043906
23.36,0.04651021953065859
23.366667,0.05426192278576836
23.373333,0.05426192278576836
23.38,0.05426192278576836
23.386667,0.06201362604087812
23.393333,0.06976532929598789
23.4,0.09302043906131718
23.406667,0.10077214231642695
23.413333,0.10852384557153671
23.42,0.11627554882664648
23.426667,0.131778955336866
23.433333,0.14728236184708554
23.44,0.1550340651021953
23.446667,0.14728236184708554
23.453333,0.13953065859197578
23.46,0.12402725208175625
23.466667,0.11627554882664648
23.473333,0.10077214231642695
23.48,0.08526873580620742
23.486667,0.05426192278576836
23.493333,0.023255109765329296
23.5,0.0
23.506667,-0.007751703255109765
23.513333,-0.01550340651021953
23.52,-0.02328538985616957
23.526667,-0.02328538985616957
23.533333,-0.031037093111279335
23.54,-0.031037093111279335
23.546667,-0.02328538985616957
23.553333,-0.015533686601059804
23.56,-0.007781983345950038
23.566667,0.0
23.573333,0.007751703255109765
23.58,0.023255109765329296
23.586667,0.03100681302043906
23.593333,0.04651021953065859
23.6,0.05426192278576836
23.606667,0.03875851627554883
23.613333,0.0
23.62,-0.03875851627554883
23.626667,-0.07754731264193793
23.633333,-0.11630582891748675
23.64,-0.15506434519303558
23.646667,-0.18607115821347464
23.653333,-0.2170779712339137
23.66,-0.20932626797880394
23.666667,0.4573202119606359
23.673333,-0.9224526873580621
23.68,-0.6976532929598789
23.686667,-0.6976532929598789
23.693333,0.7209084027252082
23.7,-0.3333232399697199
23.706667,-0.8217108251324754
23.713333,-0.8217108251324754
23.72,-0.6666767600302801
23.726667,-0.4418773656320969
23.733333,-0.3488569265707797
23.74,-0.3488569265707797
23.746667,-0.3488569265707797
23.753333,-0.34110522331566995
23.76,-0.2635881907645723
23.766667,-0.16281604844814535
23.773333,-0.11630582891748675
23.78,-0.11630582891748675
23.786667,-0.11630582891748675
23.793333,-0.10855412566237699
23.8,-0.031037093111279335
23.806667,0.007721423164269493
23.813333,0.01550340651021953
23.82,0.023255109765329296
23.826667,0.023255109765329296
23.833333,0.03875851627554883
23.84,0.05426192278576836
23.846667,0.07751703255109765
23.853333,0.10852384557153671
23.86,0.131778955336866
23.866667,0.14728236184708554
23.873333,0.16278576835730507
23.88,0.1782891748675246
23.886667,0.18604087812263437
23.893333,0.19379258137774413
23.9,0.19379258137774413
23.906667,0.1782891748675246
23.913333,0.16278576835730507
23.92,0.14728236184708554
23.926667,0.131778955336866
23.933333,0.11627554882664648
23.94,0.10077214231642695
23.946667,0.06976532929598789
23.953333,0.03100681302043906
23.96,0.007751703255109765
23.966667,-0.007751703255109765
23.973333,-0.01550340651021953
23.98,-0.02328538985616957
23.986667,-0.031037093111279335
23.993333,-0.031037093111279335
24.0,-0.02328538985616957
24.006667,-0.007781983345950038
24.013333,0.01550340651021953
24.02,0.03875851627554883
24.026667,0.05426192278576836
24.033333,0.07751703255109765
24.04,0.07751703255109765
24.046667,0.06201362604087812
24.053333,0.03875851627554883
24.06,0.007751703255109765
24.066667,-0.03100681302043906
24.073333,-0.07754731264193793
24.08,-0.11630582891748675
24.086667,-0.15506434519303558
24.093333,-0.17831945495836488
24.1,-0.18607115821347464
24.106667,-0.18607115821347464
24.113333,-0.15506434519303558
24.12,0.7751400454201363
24.126667,-0.7364118092354277
24.133333,-0.7364118092354277
24.14,-0.7984254352763058
24.146667,0.45735049205147615
24.153333,-0.5038607115821347
24.16,-0.8139591218773656
24.166667,-0.8139591218773656
24.173333,-0.5814080242240727
24.18,-0.27133989401968206
24.186667,-0.17831945495836488
24.193333,-0.17831945495836488
24.2,-0.20157456472369417
24.206667,-0.23258137774413323
24.213333,-0.23258137774413323
24.22,-0.1938228614685844
24.226667,-0.16281604844814535
24.233333,-0.15506434519303558
24.24,-0.15506434519303558
24.246667,-0.15506434519303558
24.253333,-0.11630582891748675
24.26,-0.046540499621498865
24.266667,0.04647993943981832
24.273333,0.12402725208175625
24.28,0.17053747161241484
24.286667,0.1782891748675246
24.293333,0.17053747161241484
24.3,0.16278576835730507
24.306667,0.2015442846328539
24.313333,0.2247993943981832
24.32,0.2247993943981832
24.326667,0.20929598788796366
24.333333,0.2015442846328539
24.34,0.20929598788796366
24.346667,0.23255109765329296
24.353333,0.2480545041635125
24.36,0.25580620741862226
24.366667,0.2247993943981832
24.373333,0.19379258137774413
24.38,0.1550340651021953
24.386667,0.11627554882664648
24.393333,0.07751703255109765
24.4,0.03875851627554883
24.406667,0.01550340651021953
24.413333,0.0
24.42,0.0
24.426667,0.007751703255109765
24.433333,0.01550340651021953
24.44,0.01550340651021953
24.446667,0.023255109765329296
24.453333,0.01550340651021953
24.46,0.007751703255109765
24.466667,0.01550340651021953
24.473333,0.03875851627554883
24.48,0.06201362604087812
24.486667,0.07751703255109765
24.493333,0.06976532929598789
24.5,0.05426192278576836
24.506667,0.03875851627554883
24.513333,0.01550340651021953
24.52,-0.01550340651021953
24.526667,-0.05429220287660863
24.533333,-0.09305071915215746
24.54,-0.10855412566237699
24.546667,-0.10855412566237699
24.553333,-0.10855412566237699
24.56,-0.10080242240726722
24.566667,-0.07754731264193793
24.573333,0.6433610900832702
24.58,-0.860439061317184
24.586667,-0.860439061317184
24.593333,-0.9069492808478425
24.6,0.43409538228614686
24.606667,-0.45735049205147615
24.613333,-0.7596971990915973
24.62,-0.7596971990915973
24.626667,-0.5969114307342922
24.633333,-0.42637395912187737
24.64,-0.3953671461014383
24.646667,-0.3798637395912188
24.653333,-0.3333535200605602
24.66,-0.2635881907645723
24.666667,-0.20157456472369417
24.673333,-0.15506434519303558
24.68,-0.09305071915215746
24.686667,-0.046540499621498865
24.693333,-0.046540499621498865
24.7,-0.062043906131718396
24.706667,-0.07754731264193793
24.713333,-0.07754731264193793
24.72,-0.06979560938682816
24.726667,-0.046540499621498865
24.733333,-0.015533686601059804
24.74,0.007721423164269493
24.746667,0.023255109765329296
24.753333,0.03875851627554883
24.76,0.06201362604087812
24.766667,0.09302043906131718
24.773333,0.12402725208175625
24.78,0.1550340651021953
24.786667,0.17053747161241484
24.793333,0.1782891748675246
24.8,0.18604087812263437
24.806667,0.2015442846328539
24.813333,0.20929598788796366
24.82,0.18604087812263437
24.826667,0.16278576835730507
24.833333,0.131778955336866
24.84,0.10077214231642695
24.846667,0.06976532929598789
24.853333,0.03100681302043906
24.86,-0.007751703255109765
24.866667,-0.03100681302043906
24.873333,-0.007781983345950038
24.88,0.01550340651021953
24.886667,0.03100681302043906
24.893333,0.03100681302043906
24.9,0.023255109765329296
24.906667,0.03100681302043906
24.913333,0.03100681302043906
24.92,0.023255109765329296
24.926667,0.007751703255109765
24.933333,-0.007751703255109765
24.94,-0.007751703255109765
24.946667,0.007751703255109765
24.953333,0.023255109765329296
24.96,0.04651021953065859
24.966667,0.05426192278576836
24.973333,0.04651021953065859
24.98,0.01550340651021953
24.986667,-0.023255109765329296
24.993333,-0.06979560938682816
25.0,-0.27133989401968206
25.006667,-0.27133989401968206
25.013333,-0.13956093868281605
25.02,0.3798031794095382
25.026667,-0.8526873580620742
25.033333,-0.5116124148372445
25.04,-0.5116124148372445
25.046667,0.8759424678274035
25.053333,-0.24030280090840272
25.06,-0.767448902346707
25.066667,-0.767448902346707
25.073333,-0.7209386828160484
25.08,-0.5736563209689629
25.086667,-0.41087055261165784
25.093333,-0.34110522331566995
25.1,-0.3023467070401211
25.106667,-0.24808478425435276
25.113333,-0.17831945495836488
25.12,-0.13956093868281605
25.126667,-0.13956093868281605
25.133333,-0.15506434519303558
25.14,-0.16281604844814535
25.146667,-0.1705677517032551
25.153333,-0.13956093868281605
25.16,-0.10855412566237699
25.166667,-0.07754731264193793
25.173333,-0.05429220287660863
25.18,-0.0387887963663891
25.186667,-0.007781983345950038
25.193333,0.03875851627554883
25.2,0.07751703255109765
25.206667,0.10852384557153671
25.213333,0.12402725208175625
25.22,0.13953065859197578
25.226667,0.1550340651021953
25.233333,0.18604087812263437
25.24,0.20929598788796366
25.246667,0.23255109765329296
25.253333,0.2480545041635125
25.26,0.2480545041635125
25.266667,0.23255109765329296
25.273333,0.21704769114307343
25.28,0.19379258137774413
25.286667,0.14728236184708554
25.293333,0.10077214231642695
25.3,0.05426192278576836
25.306667,0.01550340651021953
25.313333,0.0
25.32,0.007751703255109765
25.326667,0.023255109765329296
25.333333,0.03100681302043906
25.34,0.03100681302043906
25.346667,0.03875851627554883
25.353333,0.05426192278576836
25.36,0.07751703255109765
25.366667,0.09302043906131718
25.373333,0.10852384557153671
25.38,0.10852384557153671
25.386667,0.11627554882664648
25.393333,0.131778955336866
25.4,0.13953065859197578
25.406667,0.11627554882664648
25.413333,0.06976532929598789
25.42,0.01550340651021953
25.426667,-0.04651021953065859
25.433333,-0.09305071915215746
25.44,-0.13180923542770628
25.446667,-0.17831945495836488
25.453333,-0.372112036336109
25.46,-0.372112036336109
25.466667,-3.028009084027252e-05
25.473333,0.8759424678274035
25.48,-0.5968811506434519
25.486667,-0.5968811506434519
25.493333,-0.9689629068887207
25.5,0.01550340651021953
25.506667,-0.7674186222558668
25.513333,-0.9147312641937926
25.52,-0.9147312641937926
25.526667,-0.7209386828160484
25.533333,-0.4573807721423164
25.54,-0.3333535200605602
25.546667,-0.25583648750946253
25.553333,-0.20932626797880394
25.56,-0.18607115821347464
25.566667,-0.18607115821347464
25.573333,-0.1938228614685844
25.58,-0.1938228614685844
25.586667,-0.16281604844814535
25.593333,-0.13180923542770628
25.6,-0.11630582891748675
25.606667,-0.10080242240726722
25.613333,-0.08529901589704769
25.62,-0.062043906131718396
25.626667,-0.031037093111279335
25.633333,-0.007781983345950038
25.64,0.03100681302043906
25.646667,0.05426192278576836
25.653333,0.07751703255109765
25.66,0.10077214231642695
25.666667,0.11627554882664648
25.673333,0.131778955336866
25.68,0.14728236184708554
25.686667,0.16278576835730507
25.693333,0.1782891748675246
25.7,0.19379258137774413
25.706667,0.19379258137774413
25.713333,0.2015442846328539
25.72,0.19379258137774413
25.726667,0.18604087812263437
25.733333,0.16278576835730507
25.74,0.131778955336866
25.746667,0.10077214231642695
25.753333,0.07751703255109765
25.76,0.06201362604087812
25.766667,0.04651021953065859
25.773333,0.023255109765329296
25.78,0.007751703255109765
25.786667,0.0
25.793333,0.0
25.8,0.007751703255109765
25.806667,0.023255109765329296
25.813333,0.03875851627554883
25.82,0.06201362604087812
25.826667,0.08526873580620742
25.833333,0.10077214231642695
25.84,0.10852384557153671
25.846667,0.09302043906131718
25.853333,0.06201362604087812
25.86,0.01550340651021953
25.866667,-0.03100681302043906
25.873333,-0.06979560938682816
25.88,-0.09305071915215746
25.886667,-0.12405753217259652
25.893333,-0.13956093868281605
25.9,-0.13956093868281605
25.906667,-0.12405753217259652
25.913333,0.33329295987887964
25.92,-0.9999697199091597
25.926667,-0.6123845571536715
25.933333,-0.6123845571536715
25.94,0.9379560938682816
25.946667,-0.11627554882664648
25.953333,-0.736442089326268
25.96,-0.736442089326268
25.966667,-0.6201665404996215
25.973333,-0.4573807721423164
25.98,-0.3953671461014383
25.986667,-0.3953671461014383
25.993333,-0.3953671461014383
26.0,-0.3953671461014383
26.006667,-0.3333535200605602
26.013333,-0.23258137774413323
26.02,-0.1705677517032551
26.026667,-0.11630582891748675
26.033333,-0.06979560938682816
26.04,-0.031037093111279335
26.046667,0.023224829674489023
26.053333,0.06201362604087812
26.06,0.10852384557153671
26.066667,0.13953065859197578
26.073333,0.1550340651021953
26.08,0.1550340651021953
26.086667,0.13953065859197578
26.093333,0.12402725208175625
26.1,0.13953065859197578
26.106667,0.14728236184708554
26.113333,0.1550340651021953
26.12,0.1550340651021953
26.126667,0.16278576835730507
26.133333,0.18604087812263437
26.14,0.21704769114307343
26.146667,0.24030280090840272
26.153333,0.24030280090840272
26.16,0.21704769114307343
26.166667,0.18604087812263437
26.173333,0.16278576835730507
26.18,0.131778955336866
26.186667,0.09302043906131718
26.193333,0.05426192278576836
26.2,0.007751703255109765
26.206667,-0.023255109765329296
26.213333,-0.0387887963663891
26.22,-0.0387887963663891
26.226667,-0.0387887963663891
26.233333,-0.0387887963663891
26.24,-0.0387887963663891
26.246667,-0.015533686601059804
26.253333,0.023224829674489023
26.26,0.06976532929598789
26.266667,0.10852384557153671
26.273333,0.131778955336866
26.28,0.12402725208175625
26.286667,0.10852384557153671
26.293333,0.09302043906131718
26.3,0.06201362604087812
26.306667,0.023255109765329296
26.313333,-0.03100681302043906
26.32,-0.08529901589704769
26.326667,-0.13180923542770628
26.333333,-0.16281604844814535
26.34,-0.17831945495836488
26.346667,-0.17831945495836488
26.353333,0.1860105980317941
26.36,0.8836941710825132
26.366667,-0.6821498864496593
26.373333,-0.6821498864496593
26.38,-0.8759424678274035
26.386667,0.3178198334595004
26.393333,-0.5581226343679031
26.4,-0.8449659348978047
26.406667,-0.8449659348978047
26.413333,-0.6511733535200606
26.42,-0.36436033308099924
26.426667,-0.25583648750946253
26.433333,-0.23258137774413323
26.44,-0.20157456472369417
26.446667,-0.1705677517032551
26.453333,-0.1705677517032551
26.46,-0.1938228614685844
26.466667,-0.22482967448902347
26.473333,-0.22482967448902347
26.48,-0.17831945495836488
26.486667,-0.07754731264193793
26.493333,-0.046540499621498865
26.5,-0.031037093111279335
26.506667,-0.015533686601059804
26.513333,-0.007781983345950038
26.52,0.007751703255109765
26.526667,0.03100681302043906
26.533333,0.04651021953065859
26.54,0.08526873580620742
26.546667,0.10852384557153671
26.553333,0.12402725208175625
26.56,0.14728236184708554
26.566667,0.17053747161241484
26.573333,0.18604087812263437
26.58,0.18604087812263437
26.586667,0.18604087812263437
26.593333,0.1782891748675246
26.6,0.17053747161241484
26.606667,0.16278576835730507
26.613333,0.14728236184708554
26.62,0.12402725208175625
26.626667,0.09302043906131718
26.633333,0.06976532929598789
26.64,0.04651021953065859
26.646667,0.03875851627554883
26.653333,0.03100681302043906
26.66,0.023255109765329296
26.666667,0.023255109765329296
26.673333,0.03100681302043906
26.68,0.03875851627554883
26.686667,0.05426192278576836
26.693333,0.06976532929598789
26.7,0.08526873580620742
26.706667,0.10852384557153671
26.713333,0.12402725208175625
26.72,0.14728236184708554
26.726667,0.1550340651021953
26.733333,0.14728236184708554
26.74,0.11627554882664648
26.746667,0.07751703255109765
26.753333,0.023255109765329296
26.76,-0.023255109765329296
26.766667,-0.06979560938682816
26.773333,-0.10855412566237699
26.78,-0.13956093868281605
26.786667,-0.15506434519303558
26.793333,-0.12405753217259652
26.8,0.5425889477668433
26.806667,-0.891445874337623
26.813333,-0.6821498864496593
26.82,-0.6821498864496593
26.826667,0.7131566994700984
26.833333,-0.3798334595003785
26.84,-0.8914761544284633
26.846667,-0.8914761544284633
26.853333,-0.6899318697956094
26.86,-0.49613928841786525
26.866667,-0.43412566237698713
26.873333,-0.42637395912187737
26.88,-0.3566086298258895
26.886667,-0.22482967448902347
26.893333,-0.09305071915215746
26.9,-0.06979560938682816
26.906667,-0.06979560938682816
26.913333,-0.07754731264193793
26.92,-0.07754731264193793
26.926667,-0.046540499621498865
26.933333,-0.015533686601059804
26.94,-0.007781983345950038
26.946667,0.0
26.953333,0.0
26.96,0.007751703255109765
26.966667,0.01550340651021953
26.973333,0.023255109765329296
26.98,0.03100681302043906
26.986667,0.04651021953065859
26.993333,0.06976532929598789
27.0,0.10852384557153671
27.006667,0.13953065859197578
27.013333,0.17053747161241484
27.02,0.17053747161241484
27.026667,0.16278576835730507
27.033333,0.1550340651021953
27.04,0.13953065859197578
27.046667,0.11627554882664648
27.053333,0.07751703255109765
27.06,0.03100681302043906
27.066667,-0.007751703255109765
27.073333,-0.023255109765329296
27.08,-0.015533686601059804
27.086667,-0.007781983345950038
27.093333,0.007751703255109765
27.1,0.023255109765329296
27.106667,0.03100681302043906
27.113333,0.03100681302043906
27.12,0.03100681302043906
27.126667,0.023255109765329296
27.133333,0.03875851627554883
27.14,0.05426192278576836
27.146667,0.06976532929598789
27.153333,0.07751703255109765
27.16,0.08526873580620742
27.166667,0.08526873580620742
27.173333,0.09302043906131718
27.18,0.08526873580620742
27.186667,0.05426192278576836
27.193333,0.0
27.2,-0.06201362604087812
27.206667,-0.11630582891748675
27.213333,-0.15506434519303558
27.22,-0.17831945495836488
27.226667,-0.1938228614685844
27.233333,-0.05429220287660863
27.24,0.4108099924299773
27.246667,-0.8836941710825132
27.253333,-0.5193641180923543
27.26,-0.5193641180923543
27.266667,0.9457077971233914
27.273333,-0.08526873580620742
27.28,-0.6201665404996215
27.286667,-0.6434216502649508
27.293333,-0.6434216502649508
27.3,-0.49613928841786525
27.306667,-0.3488569265707797
27.313333,-0.3256018168054504
27.32,-0.3256018168054504
27.326667,-0.3256018168054504
27.333333,-0.29459500378501136
27.34,-0.22482967448902347
27.346667,-0.15506434519303558
27.353333,-0.11630582891748675
27.36,-0.11630582891748675
27.366667,-0.11630582891748675
27.373333,-0.10080242240726722
27.38,-0.062043906131718396
27.386667,-0.031037093111279335
27.393333,-0.007781983345950038
27.4,-0.007751703255109765
27.406667,-0.01550340651021953
27.413333,-0.007781983345950038
27.42,0.0
27.426667,0.03100681302043906
27.433333,0.05426192278576836
27.44,0.06976532929598789
27.446667,0.07751703255109765
27.453333,0.09302043906131718
27.46,0.12402725208175625
27.466667,0.1550340651021953
27.473333,0.19379258137774413
27.48,0.2015442846328539
27.486667,0.19379258137774413
27.493333,0.16278576835730507
27.5,0.131778955336866
27.506667,0.10077214231642695
27.513333,0.07751703255109765
27.52,0.05426192278576836
27.526667,0.023255109765329296
27.533333,0.0
27.54,-0.01550340651021953
27.546667,-0.015533686601059804
27.553333,-0.007781983345950038
27.56,0.007751703255109765
27.566667,0.01550340651021953
27.573333,0.01550340651021953
27.58,0.01550340651021953
27.586667,0.023255109765329296
27.593333,0.03875851627554883
27.6,0.05426192278576836
27.606667,0.06976532929598789
27.613333,0.06201362604087812
27.62,0.03875851627554883
27.626667,0.007751703255109765
27.633333,-0.01550340651021953
27.64,-0.046540499621498865
27.646667,-0.08529901589704769
27.653333,-0.13180923542770628
27.66,-0.1705677517032551
27.666667,-0.20157456472369417
27.673333,-0.20932626797880394
27.68,-0.1938228614685844
27.686667,0.32554125662376987
27.693333,-0.9147009841029523
27.7,-0.4883573050719152
27.706667,-0.4883573050719152
27.713333,-0.9844663133989402
27.72,-0.03875851627554883
27.726667,-0.5891597274791824
27.733333,-0.5891597274791824
27.74,-0.5116426949280848
27.746667,-0.3953671461014383
27.753333,-0.34110522331566995
27.76,-0.3333535200605602
27.766667,-0.3333535200605602
27.773333,-0.31785011355034065
27.78,-0.3023467070401211
27.786667,-0.29459500378501136
27.793333,-0.27133989401968206
27.8,-0.20157456472369417
27.806667,-0.09305071915215746
27.813333,-0.007781983345950038
27.82,0.03100681302043906
27.826667,0.03100681302043906
27.833333,0.03100681302043906
27.84,0.03100681302043906
27.846667,0.03100681302043906
27.853333,0.03875851627554883
27.86,0.03875851627554883
27.866667,0.03875851627554883
27.873333,0.04651021953065859
27.88,0.06201362604087812
27.886667,0.07751703255109765
27.893333,0.10852384557153671
27.9,0.131778955336866
27.906667,0.16278576835730507
27.913333,0.1782891748675246
27.92,0.18604087812263437
27.926667,0.1782891748675246
27.933333,0.16278576835730507
27.94,0.13953065859197578
27.946667,0.10852384557153671
27.953333,0.08526873580620742
27.96,0.06201362604087812
27.966667,0.04651021953065859
27.973333,0.04651021953065859
27.98,0.05426192278576836
27.986667,0.06201362604087812
27.993333,0.05426192278576836
28.0,0.03875851627554883
28.006667,0.007751703255109765
28.013333,-0.023255109765329296
28.02,-0.05429220287660863
28.026667,-0.05429220287660863
28.033333,-0.031037093111279335
28.04,-3.028009084027252e-05
28.046667,0.04651021953065859
28.053333,0.09302043906131718
28.06,0.131778955336866
28.066667,0.1550340651021953
28.073333,0.14728236184708554
28.08,0.11627554882664648
28.086667,0.06201362604087812
28.093333,0.007751703255109765
28.1,-0.04651021953065859
28.106667,-0.09305071915215746
28.113333,-0.12405753217259652
28.12,-0.14731264193792581
28.126667,-0.14731264193792581
28.133333,-0.13956093868281605
28.14,0.19376230128690386
28.146667,0.9069492808478425
28.153333,-0.6433913701741105
28.16,-0.6433913701741105
28.166667,-0.860439061317184
28.173333,0.3410749432248297
28.18,-0.48060560181680545
28.186667,-0.7441937925813777
28.193333,-0.7441937925813777
28.2,-0.5814080242240727
28.206667,-0.34110522331566995
28.213333,-0.25583648750946253
28.22,-0.24808478425435276
28.226667,-0.24808478425435276
28.233333,-0.24808478425435276
