t_sec,ecg
0.0,0.05639476334340383
0.006667,0.5075833867374653
0.013333,0.008666727699960328
0.02,0.10915804571393695
0.026667,0.007995361469681711
0.033333,0.00759864506088071
0.04,0.00759864506088071
0.046667,0.3044645854313528
0.053333,0.08581281088833959
0.06,0.008392077878482713
0.066667,0.32008910860874606
0.073333,-0.2257011199609387
0.08,-0.2265555860722024
0.086667,-0.17968201654002258
0.093333,-0.0703103542982697
0.1,-0.9765326985870793
0.106667,-0.8593182581097989
0.113333,-0.8593182581097989
0.12,0.8671915529921572
0.126667,0.32033324178339284
0.133333,-0.03121852970795569
0.14,-0.12499618541914614
0.146667,-0.12499618541914614
0.153333,-0.031249046354786536
0.16,0.06249809270957307
0.166667,0.07034087094510055
0.173333,0.07034087094510055
0.18,0.06252860935640392
0.186667,0.06252860935640392
0.193333,0.07815313253379719
0.2,0.08596539412249382
0.206667,0.08596539412249382
0.213333,0.03127956300161738
0.22,-0.023406268119259055
0.226667,-0.023436784766089902
0.233333,-0.023436784766089902
0.24,-0.023436784766089902
0.246667,-0.023436784766089902
0.253333,-0.031249046354786536
0.26,-0.03906130794348317
0.266667,-0.05468583112087644
0.273333,-0.06249809270957307
0.28,-0.0703103542982697
0.286667,-0.07812261588696634
0.293333,-0.07812261588696634
0.3,-0.06249809270957307
0.306667,-0.03906130794348317
0.313333,0.0
0.32,0.046873569532179804
0.326667,0.08596539412249382
0.333333,0.125026702065977
0.34,0.15627574842076353
0.346667,0.17971253318685343
0.353333,0.18752479477555006
0.36,0.16408801000946016
0.366667,0.14065122524337026
0.373333,0.11721444047728036
0.38,0.10158991729988709
0.386667,0.08596539412249382
0.393333,0.07815313253379719
0.4,0.06252860935640392
0.406667,0.054716347767707285
0.413333,0.06252860935640392
0.42,0.06252860935640392
0.426667,0.06252860935640392
0.433333,0.054716347767707285
0.44,0.054716347767707285
0.446667,0.03909182459031402
0.453333,0.03127956300161738
0.46,0.02346730141292075
0.466667,0.02346730141292075
0.473333,0.02346730141292075
0.48,0.03127956300161738
0.486667,0.03127956300161738
0.493333,0.02346730141292075
0.5,0.02346730141292075
0.506667,0.02346730141292075
0.513333,0.02346730141292075
0.52,0.03127956300161738
0.526667,0.03909182459031402
0.533333,0.03909182459031402
0.54,0.03909182459031402
0.546667,0.03909182459031402
0.553333,0.04690408617901065
0.56,0.04690408617901065
0.566667,0.054716347767707285
0.573333,0.04690408617901065
0.58,0.03909182459031402
0.586667,0.02346730141292075
0.593333,0.015655039824224115
0.6,0.007842778235527481
0.606667,3.0516646830846227e-05
0.613333,0.0
0.62,0.0
0.626667,-0.015624523177393268
0.633333,-0.023436784766089902
0.64,-0.046873569532179804
0.646667,-0.06249809270957307
0.653333,-0.09374713906435961
0.66,-0.12499618541914614
0.666667,-0.14843297018523605
0.673333,-0.16405749336262931
0.68,-0.17968201654002258
0.686667,-0.18749427812871922
0.693333,-0.17968201654002258
0.7,-0.14843297018523605
0.706667,0.6249809270957307
0.713333,-0.921816350819372
0.72,-0.7890079038115292
0.726667,-0.7890079038115292
0.733333,0.8906283377582471
0.74,0.3359577649607861
0.746667,0.02346730141292075
0.753333,-0.03121852970795569
0.76,-0.031249046354786536
0.766667,-0.023436784766089902
0.773333,-0.023436784766089902
0.78,-0.015624523177393268
0.786667,0.007812261588696634
0.793333,0.04690408617901065
0.8,0.08596539412249382
0.806667,0.08596539412249382
0.813333,0.06252860935640392
0.82,0.007842778235527481
0.826667,-0.04684305288534896
0.833333,-0.06249809270957307
0.84,-0.06249809270957307
0.846667,-0.046873569532179804
0.853333,-0.031249046354786536
0.86,-0.023436784766089902
0.866667,-0.031249046354786536
0.873333,-0.03906130794348317
0.88,-0.03906130794348317
0.886667,-0.03906130794348317
0.893333,-0.023436784766089902
0.9,-0.015624523177393268
0.906667,-0.015624523177393268
0.913333,-0.007812261588696634
0.92,0.0
0.926667,0.023436784766089902
0.933333,0.04690408617901065
0.94,0.07034087094510055
0.946667,0.08596539412249382
0.953333,0.10158991729988709
0.96,0.10940217888858372
0.966667,0.11721444047728036
0.973333,0.11721444047728036
0.98,0.10940217888858372
0.986667,0.10158991729988709
0.993333,0.08596539412249382
1.0,0.07034087094510055
1.006667,0.06252860935640392
1.013333,0.04690408617901065
1.02,0.03909182459031402
1.026667,0.03127956300161738
1.033333,0.03127956300161738
1.04,0.03127956300161738
1.046667,0.02346730141292075
1.053333,0.007842778235527481
1.06,3.0516646830846227e-05
1.066667,-0.015624523177393268
1.073333,-0.023436784766089902
1.08,-0.031249046354786536
1.086667,-0.031249046354786536
1.093333,-0.023436784766089902
1.1,-0.015624523177393268
1.106667,-0.007812261588696634
1.113333,0.007812261588696634
1.12,0.015655039824224115
1.126667,0.03127956300161738
1.133333,0.03909182459031402
1.14,0.03909182459031402
1.146667,0.04690408617901065
1.153333,0.04690408617901065
1.16,0.04690408617901065
1.166667,0.054716347767707285
1.173333,0.054716347767707285
1.18,0.054716347767707285
1.186667,0.054716347767707285
1.193333,0.04690408617901065
1.2,0.03127956300161738
1.206667,0.02346730141292075
1.213333,0.015655039824224115
1.22,0.015655039824224115
1.226667,0.007842778235527481
1.233333,0.007842778235527481
1.24,3.0516646830846227e-05
1.246667,0.0
1.253333,-0.015624523177393268
1.26,-0.046873569532179804
1.266667,-0.07812261588696634
1.273333,-0.10937166224175288
1.28,-0.13280844700784278
1.286667,-0.1406207085965394
1.293333,-0.14843297018523605
1.3,-0.15624523177393268
1.306667,-0.15624523177393268
1.313333,-0.07812261588696634
1.32,0.08593487747566297
1.326667,0.5547010894442919
1.333333,-0.8280692117550124
1.34,-0.5233910097958436
1.346667,-0.5233910097958436
1.353333,-0.8593182581097989
1.36,0.4687662119686289
1.366667,-0.015594006530562423
1.373333,-0.15624523177393268
1.38,-0.15624523177393268
1.386667,-0.14843297018523605
1.393333,-0.14843297018523605
1.4,-0.15624523177393268
1.406667,-0.17186975495132595
1.413333,-0.17968201654002258
1.42,-0.17186975495132595
1.426667,-0.17186975495132595
1.433333,-0.17968201654002258
1.44,-0.17968201654002258
1.446667,-0.16405749336262931
1.453333,-0.16405749336262931
1.46,-0.15624523177393268
1.466667,-0.14843297018523605
1.473333,-0.14843297018523605
1.48,-0.1406207085965394
1.486667,-0.12499618541914614
1.493333,-0.10155940065305624
1.5,-0.0703103542982697
1.506667,-0.03906130794348317
1.513333,-0.007812261588696634
1.52,0.031249046354786536
1.526667,0.08596539412249382
1.533333,0.13283896365467363
1.54,0.1719002715981568
1.546667,0.1953370563642467
1.553333,0.22658610271903323
1.56,0.25002288748512314
1.566667,0.27345967225121304
1.573333,0.2890841954286063
1.58,0.3047087186059996
1.586667,0.3125209801946962
1.593333,0.32033324178339284
1.6,0.3125209801946962
1.606667,0.29689645701730294
1.613333,0.27345967225121304
1.62,0.2422106258964265
1.626667,0.20314931795294333
1.633333,0.1484634868320669
1.64,0.08596539412249382
1.646667,0.02346730141292075
1.653333,-0.023406268119259055
1.66,-0.06249809270957307
1.666667,-0.10155940065305624
1.673333,-0.13280844700784278
1.68,-0.14843297018523605
1.686667,-0.16405749336262931
1.693333,-0.16405749336262931
1.7,-0.17186975495132595
1.706667,-0.17186975495132595
1.713333,-0.17968201654002258
1.72,-0.18749427812871922
1.726667,-0.18749427812871922
1.733333,-0.19530653971741585
1.74,-0.20311880130611248
1.746667,-0.20311880130611248
1.753333,-0.20311880130611248
1.76,-0.20311880130611248
1.766667,-0.20311880130611248
1.773333,-0.20311880130611248
1.78,-0.19530653971741585
1.786667,-0.19530653971741585
1.793333,-0.19530653971741585
1.8,-0.19530653971741585
1.806667,-0.19530653971741585
1.813333,-0.19530653971741585
1.82,-0.20311880130611248
1.826667,-0.19530653971741585
1.833333,-0.18749427812871922
1.84,-0.17968201654002258
1.846667,-0.17968201654002258
1.853333,-0.16405749336262931
1.86,-0.15624523177393268
1.866667,-0.1406207085965394
1.873333,-0.11718392383044951
1.88,-0.09374713906435961
1.886667,-0.07812261588696634
1.893333,-0.06249809270957307
1.9,-0.046873569532179804
1.906667,-0.03906130794348317
1.913333,-0.023436784766089902
1.92,-0.015624523177393268
1.926667,-0.007812261588696634
1.933333,-0.007812261588696634
1.94,-0.007812261588696634
1.946667,0.0
1.953333,0.0
1.96,0.007812261588696634
1.966667,0.007842778235527481
1.973333,0.03909182459031402
1.98,0.8671915529921572
1.986667,-0.7577588574567427
1.993333,-0.7343220726906527
2.0,-0.7343220726906527
2.006667,0.9296896457017303
2.013333,0.3281455033720895
2.02,-0.05465531447404559
2.026667,-0.17186975495132595
2.033333,-0.17968201654002258
2.04,-0.18749427812871922
2.046667,-0.20311880130611248
2.053333,-0.20311880130611248
2.06,-0.19530653971741585
2.066667,-0.15624523177393268
2.073333,-0.09374713906435961
2.08,-0.046873569532179804
2.086667,-0.015624523177393268
2.093333,0.007812261588696634
2.1,0.02346730141292075
2.106667,0.03909182459031402
2.113333,0.054716347767707285
2.12,0.054716347767707285
2.126667,0.04690408617901065
2.133333,0.04690408617901065
2.14,0.054716347767707285
2.146667,0.06252860935640392
2.153333,0.08596539412249382
2.16,0.10158991729988709
2.166667,0.125026702065977
2.173333,0.16408801000946016
2.18,0.21096157954163997
2.186667,0.2656474106625164
2.193333,0.3125209801946962
2.2,0.359394549726876
2.206667,0.39064359608166255
2.213333,0.4218926424364491
2.22,0.4531416887912356
2.226667,0.4765784735573255
2.233333,0.4922029967347188
2.24,0.5000152583234154
2.246667,0.4922029967347188
2.253333,0.4687662119686289
2.26,0.4297049040251457
2.266667,0.39064359608166255
2.273333,0.3359577649607861
2.28,0.2890841954286063
2.286667,0.22658610271903323
2.293333,0.16408801000946016
2.3,0.10158991729988709
2.306667,0.06252860935640392
2.313333,0.03909182459031402
2.32,0.02346730141292075
2.326667,0.007842778235527481
2.333333,-0.007781744941865788
2.34,-0.023436784766089902
2.346667,-0.031249046354786536
2.353333,-0.023436784766089902
2.36,-0.023436784766089902
2.366667,-0.015624523177393268
2.373333,-0.007812261588696634
2.38,-0.007812261588696634
2.386667,-0.007812261588696634
2.393333,0.0
2.4,0.0
2.406667,0.007812261588696634
2.413333,0.007842778235527481
2.42,3.0516646830846227e-05
2.426667,0.0
2.433333,0.0
2.44,0.007812261588696634
2.446667,0.015655039824224115
2.453333,0.03127956300161738
2.46,0.03909182459031402
2.466667,0.04690408617901065
2.473333,0.04690408617901065
2.48,0.03909182459031402
2.486667,0.02346730141292075
2.493333,0.007842778235527481
2.5,-0.007781744941865788
2.506667,-0.023436784766089902
2.513333,-0.031249046354786536
2.52,-0.046873569532179804
2.526667,-0.046873569532179804
2.533333,-0.03906130794348317
2.54,-0.015624523177393268
2.546667,0.007812261588696634
2.553333,0.02346730141292075
2.56,0.03127956300161738
2.566667,0.03909182459031402
2.573333,0.04690408617901065
2.58,0.054716347767707285
2.586667,0.054716347767707285
2.593333,0.054716347767707285
2.6,0.03909182459031402
2.606667,0.015655039824224115
2.613333,3.0516646830846227e-05
2.62,-0.015624523177393268
2.626667,-0.031249046354786536
2.633333,-0.05468583112087644
2.64,-0.11718392383044951
2.646667,-0.031249046354786536
2.653333,0.3437395099026519
2.66,-0.9921267051176417
2.666667,-0.6327626720375965
2.673333,-0.6327626720375965
2.68,-0.7343220726906527
2.686667,0.828130245048674
2.693333,0.2422106258964265
2.7,-0.10934114559492203
2.706667,-0.2265555860722024
2.713333,-0.2265555860722024
2.72,-0.19530653971741585
2.726667,-0.14843297018523605
2.733333,-0.11718392383044951
2.74,-0.10155940065305624
2.746667,-0.09374713906435961
2.753333,-0.10155940065305624
2.76,-0.10155940065305624
2.766667,-0.08593487747566297
2.773333,-0.05468583112087644
2.78,-0.046873569532179804
2.786667,-0.03906130794348317
2.793333,-0.03906130794348317
2.8,-0.046873569532179804
2.806667,-0.046873569532179804
2.813333,-0.046873569532179804
2.82,-0.03906130794348317
2.826667,-0.031249046354786536
2.833333,-0.015624523177393268
2.84,-0.007812261588696634
2.846667,0.007812261588696634
2.853333,0.03127956300161738
2.86,0.054716347767707285
2.866667,0.08596539412249382
2.873333,0.125026702065977
2.88,0.15627574842076353
2.886667,0.17971253318685343
2.893333,0.21096157954163997
2.9,0.23439836430772987
2.906667,0.2422106258964265
2.913333,0.25002288748512314
2.92,0.2422106258964265
2.926667,0.22658610271903323
2.933333,0.20314931795294333
2.94,0.17971253318685343
2.946667,0.1484634868320669
2.953333,0.10940217888858372
2.96,0.07815313253379719
2.966667,0.03909182459031402
2.973333,0.007842778235527481
2.98,-0.03121852970795569
2.986667,-0.06249809270957307
2.993333,-0.09374713906435961
3.0,-0.11718392383044951
3.006667,-0.1406207085965394
3.013333,-0.16405749336262931
3.02,-0.17968201654002258
3.026667,-0.18749427812871922
3.033333,-0.18749427812871922
3.04,-0.18749427812871922
3.046667,-0.17968201654002258
3.053333,-0.17968201654002258
3.06,-0.17186975495132595
3.066667,-0.16405749336262931
3.073333,-0.14843297018523605
3.08,-0.1406207085965394
3.086667,-0.13280844700784278
3.093333,-0.12499618541914614
3.1,-0.10937166224175288
3.106667,-0.10155940065305624
3.113333,-0.09374713906435961
3.12,-0.09374713906435961
3.126667,-0.09374713906435961
3.133333,-0.09374713906435961
3.14,-0.09374713906435961
3.146667,-0.09374713906435961
3.153333,-0.09374713906435961
3.16,-0.08593487747566297
3.166667,-0.07812261588696634
3.173333,-0.0703103542982697
3.18,-0.06249809270957307
3.186667,-0.05468583112087644
3.193333,-0.046873569532179804
3.2,-0.03906130794348317
3.206667,-0.031249046354786536
3.213333,-0.031249046354786536
3.22,-0.023436784766089902
3.226667,-0.023436784766089902
3.233333,-0.007812261588696634
3.24,0.007812261588696634
3.246667,0.02346730141292075
3.253333,0.03909182459031402
3.26,0.054716347767707285
3.266667,0.06252860935640392
3.273333,0.07034087094510055
3.28,0.06252860935640392
3.286667,0.04690408617901065
3.293333,0.02346730141292075
3.3,3.0516646830846227e-05
3.306667,-0.015624523177393268
3.313333,-0.031249046354786536
3.32,-0.046873569532179804
3.326667,-0.05468583112087644
3.333333,-0.06249809270957307
3.34,-0.031249046354786536
3.346667,0.7343525893374836
3.353333,-0.8905673044645854
3.36,-0.8593182581097989
3.366667,-0.8593182581097989
3.373333,0.7734444139277976
3.38,0.125026702065977
3.386667,-0.23433733101406817
3.393333,-0.320302725136562
3.4,-0.320302725136562
3.406667,-0.31249046354786536
3.413333,-0.3046782019591687
3.42,-0.28905367878177546
3.426667,-0.2578046324269889
3.433333,-0.21093106289480912
3.44,-0.17968201654002258
3.446667,-0.14843297018523605
3.453333,-0.10937166224175288
3.46,-0.09374713906435961
3.466667,-0.08593487747566297
3.473333,-0.08593487747566297
3.48,-0.08593487747566297
3.486667,-0.08593487747566297
3.493333,-0.08593487747566297
3.5,-0.07812261588696634
3.506667,-0.0703103542982697
3.513333,-0.07812261588696634
3.52,-0.08593487747566297
3.526667,-0.08593487747566297
3.533333,-0.08593487747566297
3.54,-0.08593487747566297
3.546667,-0.09374713906435961
3.553333,-0.09374713906435961
3.56,-0.10155940065305624
3.566667,-0.10155940065305624
3.573333,-0.09374713906435961
3.58,-0.08593487747566297
3.586667,-0.0703103542982697
3.593333,-0.06249809270957307
3.6,-0.046873569532179804
3.606667,-0.031249046354786536
3.613333,-0.023436784766089902
3.62,-0.015624523177393268
3.626667,-0.007812261588696634
3.633333,-0.007812261588696634
3.64,-0.015624523177393268
3.646667,-0.015624523177393268
3.653333,-0.023436784766089902
3.66,-0.023436784766089902
3.666667,-0.023436784766089902
3.673333,-0.023436784766089902
3.68,-0.023436784766089902
3.686667,-0.023436784766089902
3.693333,-0.031249046354786536
3.7,-0.031249046354786536
3.706667,-0.03906130794348317
3.713333,-0.046873569532179804
3.72,-0.046873569532179804
3.726667,-0.05468583112087644
3.733333,-0.05468583112087644
3.74,-0.05468583112087644
3.746667,-0.046873569532179804
3.753333,-0.046873569532179804
3.76,-0.046873569532179804
3.766667,-0.046873569532179804
3.773333,-0.046873569532179804
3.78,-0.046873569532179804
3.786667,-0.05468583112087644
3.793333,-0.05468583112087644
3.8,-0.046873569532179804
3.806667,-0.046873569532179804
3.813333,-0.046873569532179804
3.82,-0.046873569532179804
3.826667,-0.046873569532179804
3.833333,-0.03906130794348317
3.84,-0.03906130794348317
3.846667,-0.03906130794348317
3.853333,-0.03906130794348317
3.86,-0.03906130794348317
3.866667,-0.031249046354786536
3.873333,-0.015624523177393268
3.88,-0.007812261588696634
3.886667,0.0
3.893333,0.0
3.9,0.007812261588696634
3.906667,0.015655039824224115
3.913333,0.02346730141292075
3.92,0.03127956300161738
3.926667,0.04690408617901065
3.933333,0.054716347767707285
3.94,0.07034087094510055
3.946667,0.08596539412249382
3.953333,0.09377765571119046
3.96,0.09377765571119046
3.966667,0.08596539412249382
3.973333,0.07815313253379719
3.98,0.06252860935640392
3.986667,0.054716347767707285
3.993333,0.04690408617901065
4.0,0.04690408617901065
4.006667,0.04690408617901065
4.013333,0.07815313253379719
4.02,0.679697274863438
4.026667,-0.8905673044645854
4.033333,-0.7655711190454393
4.04,-0.7655711190454393
4.046667,0.9218773841130337
4.053333,0.3515822881381794
4.06,3.0516646830846227e-05
4.066667,-0.08593487747566297
4.073333,-0.08593487747566297
4.08,-0.07812261588696634
4.086667,-0.0703103542982697
4.093333,-0.0703103542982697
4.1,-0.0703103542982697
4.106667,-0.031249046354786536
4.113333,0.031249046354786536
4.12,0.08596539412249382
4.126667,0.08596539412249382
4.133333,0.07034087094510055
4.14,0.054716347767707285
4.146667,0.054716347767707285
4.153333,0.07034087094510055
4.16,0.07034087094510055
4.166667,0.07034087094510055
4.173333,0.06252860935640392
4.18,0.04690408617901065
4.186667,0.03127956300161738
4.193333,0.015655039824224115
4.2,0.007842778235527481
4.206667,3.0516646830846227e-05
4.213333,-0.007812261588696634
4.22,-0.015624523177393268
4.226667,-0.015624523177393268
4.233333,0.0
4.24,0.031249046354786536
4.246667,0.054716347767707285
4.253333,0.07034087094510055
4.26,0.07815313253379719
4.266667,0.08596539412249382
4.273333,0.09377765571119046
4.28,0.10158991729988709
4.286667,0.10158991729988709
4.293333,0.09377765571119046
4.3,0.08596539412249382
4.306667,0.07815313253379719
4.313333,0.07815313253379719
4.32,0.07815313253379719
4.326667,0.07815313253379719
4.333333,0.07034087094510055
4.34,0.07034087094510055
4.346667,0.06252860935640392
4.353333,0.06252860935640392
4.36,0.06252860935640392
4.366667,0.054716347767707285
4.373333,0.04690408617901065
4.38,0.03909182459031402
4.386667,0.03127956300161738
4.393333,0.02346730141292075
4.4,0.007842778235527481
4.406667,3.0516646830846227e-05
4.413333,0.0
4.42,0.007812261588696634
4.426667,0.015655039824224115
4.433333,0.02346730141292075
4.44,0.03127956300161738
4.446667,0.03909182459031402
4.453333,0.04690408617901065
4.46,0.04690408617901065
4.466667,0.04690408617901065
4.473333,0.04690408617901065
4.48,0.04690408617901065
4.486667,0.03909182459031402
4.493333,0.03909182459031402
4.5,0.03909182459031402
4.506667,0.03909182459031402
4.513333,0.03909182459031402
4.52,0.03127956300161738
4.526667,0.03127956300161738
4.533333,0.03909182459031402
4.54,0.03909182459031402
4.546667,0.03127956300161738
4.553333,0.03127956300161738
4.56,0.02346730141292075
4.566667,0.02346730141292075
4.573333,0.03127956300161738
4.58,0.02346730141292075
4.586667,0.02346730141292075
4.593333,0.007842778235527481
4.6,-0.007781744941865788
4.606667,-0.023436784766089902
4.613333,-0.046873569532179804
4.62,-0.0703103542982697
4.626667,-0.08593487747566297
4.633333,-0.10155940065305624
4.64,-0.11718392383044951
4.646667,-0.11718392383044951
4.653333,-0.12499618541914614
4.66,-0.13280844700784278
4.666667,-0.21874332448350575
4.673333,-0.031249046354786536
4.68,0.46873569532179804
4.686667,-0.9530653971741585
4.693333,-0.6952607647471696
4.7,-0.6952607647471696
4.706667,0.9609386920565168
4.713333,0.3281455033720895
4.72,0.02346730141292075
4.726667,3.0516646830846227e-05
4.733333,0.0
4.74,0.007812261588696634
4.746667,0.02346730141292075
4.753333,0.02346730141292075
4.76,0.02346730141292075
4.766667,0.02346730141292075
4.773333,0.02346730141292075
4.78,0.015655039824224115
4.786667,0.007842778235527481
4.793333,0.007842778235527481
4.8,0.007842778235527481
4.806667,3.0516646830846227e-05
4.813333,-0.007812261588696634
4.82,-0.023436784766089902
4.826667,-0.03906130794348317
4.833333,-0.05468583112087644
4.84,-0.0703103542982697
4.846667,-0.07812261588696634
4.853333,-0.07812261588696634
4.86,-0.0703103542982697
4.866667,-0.05468583112087644
4.873333,-0.031249046354786536
4.88,0.0
4.886667,0.023436784766089902
4.893333,0.04690408617901065
4.9,0.07034087094510055
4.906667,0.09377765571119046
4.913333,0.09377765571119046
4.92,0.09377765571119046
4.926667,0.09377765571119046
4.933333,0.08596539412249382
4.94,0.08596539412249382
4.946667,0.08596539412249382
4.953333,0.08596539412249382
4.96,0.08596539412249382
4.966667,0.08596539412249382
4.973333,0.07815313253379719
4.98,0.07034087094510055
4.986667,0.07034087094510055
4.993333,0.06252860935640392
5.0,0.06252860935640392
5.006667,0.06252860935640392
5.013333,0.04690408617901065
5.02,0.03127956300161738
5.026667,0.015655039824224115
5.033333,0.007842778235527481
5.04,0.007842778235527481
5.046667,0.007842778235527481
5.053333,0.007842778235527481
5.06,-0.007781744941865788
5.066667,-0.015624523177393268
5.073333,-0.007812261588696634
5.08,0.0
5.086667,0.007812261588696634
5.093333,0.015655039824224115
5.1,0.02346730141292075
5.106667,0.03127956300161738
5.113333,0.04690408617901065
5.12,0.054716347767707285
5.126667,0.06252860935640392
5.133333,0.054716347767707285
5.14,0.054716347767707285
5.146667,0.04690408617901065
5.153333,0.03909182459031402
5.16,0.03127956300161738
5.166667,0.02346730141292075
5.173333,0.02346730141292075
5.18,0.015655039824224115
5.186667,0.015655039824224115
5.193333,0.015655039824224115
5.2,0.007842778235527481
5.206667,3.0516646830846227e-05
5.213333,-0.007812261588696634
5.22,-0.015624523177393268
5.226667,-0.023436784766089902
5.233333,-0.031249046354786536
5.24,-0.03906130794348317
5.246667,-0.03906130794348317
5.253333,-0.03906130794348317
5.26,-0.031249046354786536
5.266667,-0.031249046354786536
5.273333,-0.03906130794348317
5.28,-0.05468583112087644
5.286667,-0.07812261588696634
5.293333,-0.10155940065305624
5.3,-0.12499618541914614
5.306667,-0.14843297018523605
5.313333,-0.17186975495132595
5.32,-0.19530653971741585
5.326667,-0.14843297018523605
5.333333,-0.08593487747566297
5.34,0.1406207085965394
5.346667,0.6171991821538649
5.353333,-0.7733833806341359
5.36,-0.46089291708627056
5.366667,-0.46089291708627056
5.373333,-0.7186975495132595
5.38,0.7187585828069212
5.386667,0.20314931795294333
5.393333,-0.03903079129665232
5.4,-0.07812261588696634
5.406667,-0.07812261588696634
5.413333,-0.0703103542982697
5.42,-0.0703103542982697
5.426667,-0.07812261588696634
5.433333,-0.08593487747566297
5.44,-0.10155940065305624
5.446667,-0.10155940065305624
5.453333,-0.06249809270957307
5.46,-0.023436784766089902
5.466667,-0.023436784766089902
5.473333,-0.031249046354786536
5.48,-0.03906130794348317
5.486667,-0.046873569532179804
5.493333,-0.05468583112087644
5.5,-0.05468583112087644
5.506667,-0.046873569532179804
5.513333,-0.046873569532179804
5.52,-0.046873569532179804
5.526667,-0.03906130794348317
5.533333,-0.015624523177393268
5.54,0.007812261588696634
5.546667,0.03909182459031402
5.553333,0.07034087094510055
5.56,0.10158991729988709
5.566667,0.14065122524337026
5.573333,0.1719002715981568
5.58,0.21096157954163997
5.586667,0.23439836430772987
5.593333,0.25002288748512314
5.6,0.25002288748512314
5.606667,0.2422106258964265
5.613333,0.2187738411303366
5.62,0.20314931795294333
5.626667,0.17971253318685343
5.633333,0.1484634868320669
5.64,0.125026702065977
5.646667,0.09377765571119046
5.653333,0.07815313253379719
5.66,0.054716347767707285
5.666667,0.03909182459031402
5.673333,0.015655039824224115
5.68,-0.007781744941865788
5.686667,-0.031249046354786536
5.693333,-0.046873569532179804
5.7,-0.05468583112087644
5.706667,-0.05468583112087644
5.713333,-0.05468583112087644
5.72,-0.046873569532179804
5.726667,-0.03906130794348317
5.733333,-0.023436784766089902
5.74,-0.007812261588696634
5.746667,0.007812261588696634
5.753333,0.015655039824224115
5.76,0.02346730141292075
5.766667,0.02346730141292075
5.773333,0.02346730141292075
5.78,0.03127956300161738
5.786667,0.03127956300161738
5.793333,0.03909182459031402
5.8,0.04690408617901065
5.806667,0.04690408617901065
5.813333,0.03909182459031402
5.82,0.03909182459031402
5.826667,0.03127956300161738
5.833333,0.03127956300161738
5.84,0.02346730141292075
5.846667,0.015655039824224115
5.853333,3.0516646830846227e-05
5.86,-0.007812261588696634
5.866667,-0.007812261588696634
5.873333,0.0
5.88,0.007812261588696634
5.886667,0.007842778235527481
5.893333,0.007842778235527481
5.9,0.015655039824224115
5.906667,0.02346730141292075
5.913333,0.02346730141292075
5.92,0.02346730141292075
5.926667,0.02346730141292075
5.933333,0.02346730141292075
5.94,0.02346730141292075
5.946667,0.02346730141292075
5.953333,0.015655039824224115
5.96,0.007842778235527481
5.966667,3.0516646830846227e-05
5.973333,-0.007812261588696634
5.98,-0.015624523177393268
5.986667,-0.015624523177393268
5.993333,-0.031249046354786536
6.0,-0.046873569532179804
6.006667,-0.05468583112087644
6.013333,-0.0703103542982697
6.02,-0.10937166224175288
6.026667,-0.031249046354786536
6.033333,0.2734291556043822
6.04,0.8359425066373707
6.046667,-0.8280692117550124
6.053333,-0.8124446885776191
6.06,-0.8124446885776191
6.066667,0.8593792914034606
6.073333,0.29689645701730294
6.08,-0.03121852970795569
6.086667,-0.12499618541914614
6.093333,-0.12499618541914614
6.1,-0.07812261588696634
6.106667,-0.015624523177393268
6.113333,0.015624523177393268
6.12,0.015655039824224115
6.126667,0.007842778235527481
6.133333,3.0516646830846227e-05
6.14,-0.015624523177393268
6.146667,-0.031249046354786536
6.153333,-0.046873569532179804
6.16,-0.05468583112087644
6.166667,-0.06249809270957307
6.173333,-0.06249809270957307
6.18,-0.06249809270957307
6.186667,-0.05468583112087644
6.193333,-0.046873569532179804
6.2,-0.046873569532179804
6.206667,-0.03906130794348317
6.213333,-0.03906130794348317
6.22,-0.023436784766089902
6.226667,-0.015624523177393268
6.233333,0.007812261588696634
6.24,0.03909182459031402
6.246667,0.07034087094510055
6.253333,0.10940217888858372
6.26,0.1484634868320669
6.266667,0.18752479477555006
6.273333,0.22658610271903323
6.28,0.25783514907381977
6.286667,0.27345967225121304
6.293333,0.28127193383990967
6.3,0.27345967225121304
6.306667,0.25002288748512314
6.313333,0.2187738411303366
6.32,0.18752479477555006
6.326667,0.15627574842076353
6.333333,0.125026702065977
6.34,0.08596539412249382
6.346667,0.04690408617901065
6.353333,3.0516646830846227e-05
6.36,-0.031249046354786536
6.366667,-0.06249809270957307
6.373333,-0.08593487747566297
6.38,-0.10937166224175288
6.386667,-0.13280844700784278
6.393333,-0.15624523177393268
6.4,-0.16405749336262931
6.406667,-0.17186975495132595
6.413333,-0.16405749336262931
6.42,-0.16405749336262931
6.426667,-0.15624523177393268
6.433333,-0.14843297018523605
6.44,-0.13280844700784278
6.446667,-0.11718392383044951
6.453333,-0.10155940065305624
6.46,-0.09374713906435961
6.466667,-0.08593487747566297
6.473333,-0.07812261588696634
6.48,-0.07812261588696634
6.486667,-0.0703103542982697
6.493333,-0.06249809270957307
6.5,-0.06249809270957307
6.506667,-0.06249809270957307
6.513333,-0.06249809270957307
6.52,-0.06249809270957307
6.526667,-0.05468583112087644
6.533333,-0.046873569532179804
6.54,-0.03906130794348317
6.546667,-0.03906130794348317
6.553333,-0.031249046354786536
6.56,-0.031249046354786536
6.566667,-0.023436784766089902
6.573333,-0.015624523177393268
6.58,-0.015624523177393268
6.586667,-0.023436784766089902
6.593333,-0.023436784766089902
6.6,-0.023436784766089902
6.606667,-0.023436784766089902
6.613333,-0.015624523177393268
6.62,-0.015624523177393268
6.626667,-0.007812261588696634
6.633333,0.0
6.64,0.007812261588696634
6.646667,0.02346730141292075
6.653333,0.03127956300161738
6.66,0.03909182459031402
6.666667,0.03909182459031402
6.673333,0.03127956300161738
6.68,0.03127956300161738
6.686667,0.02346730141292075
6.693333,0.007842778235527481
6.7,3.0516646830846227e-05
6.706667,-0.015624523177393268
6.713333,-0.11718392383044951
6.72,-0.11718392383044951
6.726667,0.1406207085965394
6.733333,0.7578198907504043
6.74,-0.835881473343709
6.746667,-0.7968201654002258
6.753333,-0.7968201654002258
6.76,0.8750038145808539
6.766667,0.3125209801946962
6.773333,-0.015594006530562423
6.78,-0.11718392383044951
6.786667,-0.13280844700784278
6.793333,-0.1406207085965394
6.8,-0.14843297018523605
6.806667,-0.14843297018523605
6.813333,-0.10937166224175288
6.82,-0.046873569532179804
6.826667,-0.007812261588696634
6.833333,-0.007812261588696634
6.84,-0.007812261588696634
6.846667,-0.007812261588696634
6.853333,0.007812261588696634
6.86,0.015655039824224115
6.866667,0.02346730141292075
6.873333,0.02346730141292075
6.88,0.02346730141292075
6.886667,0.03127956300161738
6.893333,0.04690408617901065
6.9,0.07815313253379719
6.906667,0.09377765571119046
6.913333,0.11721444047728036
6.92,0.13283896365467363
6.926667,0.15627574842076353
6.933333,0.18752479477555006
6.94,0.22658610271903323
6.946667,0.2656474106625164
6.953333,0.29689645701730294
6.96,0.3281455033720895
6.966667,0.3515822881381794
6.973333,0.3828313344929659
6.98,0.3984558576703592
6.986667,0.41408038084775245
6.993333,0.41408038084775245
7.0,0.4062681192590558
7.006667,0.39064359608166255
7.013333,0.36720681131557265
7.02,0.3359577649607861
7.026667,0.2890841954286063
7.033333,0.23439836430772987
7.04,0.17971253318685343
7.046667,0.125026702065977
7.053333,0.07034087094510055
7.06,0.015655039824224115
7.066667,-0.03903079129665232
7.073333,-0.07812261588696634
7.08,-0.10155940065305624
7.086667,-0.10937166224175288
7.093333,-0.11718392383044951
7.1,-0.12499618541914614
7.106667,-0.13280844700784278
7.113333,-0.1406207085965394
7.12,-0.1406207085965394
7.126667,-0.13280844700784278
7.133333,-0.13280844700784278
7.14,-0.12499618541914614
7.146667,-0.12499618541914614
7.153333,-0.11718392383044951
7.16,-0.10937166224175288
7.166667,-0.10155940065305624
7.173333,-0.09374713906435961
7.18,-0.08593487747566297
7.186667,-0.07812261588696634
7.193333,-0.0703103542982697
7.2,-0.06249809270957307
7.206667,-0.06249809270957307
7.213333,-0.06249809270957307
7.22,-0.0703103542982697
7.226667,-0.0703103542982697
7.233333,-0.07812261588696634
7.24,-0.07812261588696634
7.246667,-0.07812261588696634
7.253333,-0.07812261588696634
7.26,-0.07812261588696634
7.266667,-0.0703103542982697
7.273333,-0.06249809270957307
7.28,-0.046873569532179804
7.286667,-0.031249046354786536
7.293333,-0.015624523177393268
7.3,-0.007812261588696634
7.306667,0.0
7.313333,0.007812261588696634
7.32,0.02346730141292075
7.326667,0.02346730141292075
7.333333,0.015655039824224115
7.34,0.007842778235527481
7.346667,3.0516646830846227e-05
7.353333,-0.007812261588696634
7.36,-0.007812261588696634
7.366667,-0.015624523177393268
7.373333,-0.023436784766089902
7.38,-0.031249046354786536
7.386667,-0.031249046354786536
7.393333,0.031249046354786536
7.4,0.3515822881381794
7.406667,0.9296896457017303
7.413333,-0.749946595868046
7.42,-0.749946595868046
7.426667,-0.984314443528945
7.433333,0.445329427202539
7.44,-0.015594006530562423
7.446667,-0.15624523177393268
7.453333,-0.15624523177393268
7.46,-0.14843297018523605
7.466667,-0.1406207085965394
7.473333,-0.1406207085965394
7.48,-0.14843297018523605
7.486667,-0.14843297018523605
7.493333,-0.13280844700784278
7.5,-0.10937166224175288
7.506667,-0.08593487747566297
7.513333,-0.06249809270957307
7.52,-0.031249046354786536
7.526667,-0.023436784766089902
7.533333,-0.023436784766089902
7.54,-0.023436784766089902
7.546667,-0.023436784766089902
7.553333,-0.023436784766089902
7.56,-0.023436784766089902
7.566667,-0.015624523177393268
7.573333,-0.015624523177393268
7.58,-0.007812261588696634
7.586667,0.0
7.593333,0.015624523177393268
7.6,0.04690408617901065
7.606667,0.07034087094510055
7.613333,0.10158991729988709
7.62,0.13283896365467363
7.626667,0.16408801000946016
7.633333,0.20314931795294333
7.64,0.23439836430772987
7.646667,0.25783514907381977
7.653333,0.27345967225121304
7.66,0.2890841954286063
7.666667,0.29689645701730294
7.673333,0.2890841954286063
7.68,0.28127193383990967
7.686667,0.25783514907381977
7.693333,0.23439836430772987
7.7,0.20314931795294333
7.706667,0.1719002715981568
7.713333,0.13283896365467363
7.72,0.08596539412249382
7.726667,0.03909182459031402
7.733333,-0.007781744941865788
7.74,-0.05468583112087644
7.746667,-0.09374713906435961
7.753333,-0.12499618541914614
7.76,-0.14843297018523605
7.766667,-0.16405749336262931
7.773333,-0.17186975495132595
7.78,-0.16405749336262931
7.786667,-0.14843297018523605
7.793333,-0.13280844700784278
7.8,-0.11718392383044951
7.806667,-0.10937166224175288
7.813333,-0.10155940065305624
7.82,-0.08593487747566297
7.826667,-0.07812261588696634
7.833333,-0.07812261588696634
7.84,-0.0703103542982697
7.846667,-0.0703103542982697
7.853333,-0.0703103542982697
7.86,-0.0703103542982697
7.866667,-0.0703103542982697
7.873333,-0.0703103542982697
7.88,-0.0703103542982697
7.886667,-0.06249809270957307
7.893333,-0.06249809270957307
7.9,-0.06249809270957307
7.906667,-0.05468583112087644
7.913333,-0.05468583112087644
7.92,-0.046873569532179804
7.926667,-0.046873569532179804
7.933333,-0.03906130794348317
7.94,-0.031249046354786536
7.946667,-0.023436784766089902
7.953333,-0.007812261588696634
7.96,0.007812261588696634
7.966667,0.02346730141292075
7.973333,0.03909182459031402
7.98,0.03909182459031402
7.986667,0.03909182459031402
7.993333,0.02346730141292075
8.0,0.015655039824224115
8.006667,3.0516646830846227e-05
8.013333,-0.015624523177393268
8.02,-0.031249046354786536
8.026667,-0.046873569532179804
8.033333,-0.05468583112087644
8.04,-0.06249809270957307
8.046667,0.007812261588696634
8.053333,0.3750190729042693
8.06,0.9843754768226067
8.066667,-0.7108852879245628
8.073333,-0.7108852879245628
8.08,1.0
8.086667,0.4218926424364491
8.093333,-0.007781744941865788
8.1,-0.14843297018523605
8.106667,-0.14843297018523605
8.113333,-0.12499618541914614
8.12,-0.10937166224175288
8.126667,-0.10937166224175288
8.133333,-0.12499618541914614
8.14,-0.14843297018523605
8.146667,-0.14843297018523605
8.153333,-0.10155940065305624
8.16,-0.05468583112087644
8.166667,-0.05468583112087644
8.173333,-0.06249809270957307
8.18,-0.06249809270957307
8.186667,-0.05468583112087644
8.193333,-0.046873569532179804
8.2,-0.031249046354786536
8.206667,-0.015624523177393268
8.213333,-0.007812261588696634
8.22,0.0
8.226667,0.023436784766089902
8.233333,0.054716347767707285
8.24,0.07815313253379719
8.246667,0.10940217888858372
8.253333,0.14065122524337026
8.26,0.1719002715981568
8.266667,0.21096157954163997
8.273333,0.2422106258964265
8.28,0.27345967225121304
8.286667,0.29689645701730294
8.293333,0.32033324178339284
8.3,0.34377002654948274
8.306667,0.359394549726876
8.313333,0.36720681131557265
8.32,0.3515822881381794
8.326667,0.34377002654948274
8.333333,0.3281455033720895
8.34,0.3047087186059996
8.346667,0.27345967225121304
8.353333,0.22658610271903323
8.36,0.1719002715981568
8.366667,0.11721444047728036
8.373333,0.07034087094510055
8.38,0.03127956300161738
8.386667,3.0516646830846227e-05
8.393333,-0.03906130794348317
8.4,-0.0703103542982697
8.406667,-0.08593487747566297
8.413333,-0.08593487747566297
8.42,-0.08593487747566297
8.426667,-0.07812261588696634
8.433333,-0.07812261588696634
8.44,-0.0703103542982697
8.446667,-0.0703103542982697
8.453333,-0.0703103542982697
8.46,-0.06249809270957307
8.466667,-0.046873569532179804
8.473333,-0.031249046354786536
8.48,-0.015624523177393268
8.486667,0.0
8.493333,0.007812261588696634
8.5,0.015655039824224115
8.506667,0.02346730141292075
8.513333,0.03127956300161738
8.52,0.03127956300161738
8.526667,0.015655039824224115
8.533333,0.007842778235527481
8.54,-0.007781744941865788
8.546667,-0.015624523177393268
8.553333,-0.015624523177393268
8.56,-0.015624523177393268
8.566667,-0.015624523177393268
8.573333,-0.023436784766089902
8.58,-0.023436784766089902
8.586667,-0.015624523177393268
8.593333,-0.007812261588696634
8.6,0.007812261588696634
8.606667,0.02346730141292075
8.613333,0.03127956300161738
8.62,0.04690408617901065
8.626667,0.054716347767707285
8.633333,0.06252860935640392
8.64,0.06252860935640392
8.646667,0.054716347767707285
8.653333,0.03909182459031402
8.66,0.02346730141292075
8.666667,0.007842778235527481
8.673333,-0.007781744941865788
8.68,-0.023436784766089902
8.686667,-0.031249046354786536
8.693333,-0.05468583112087644
8.7,-0.007812261588696634
8.706667,0.2812414171930788
8.713333,0.851567029814764
8.72,-0.8124446885776191
8.726667,-0.7890079038115292
8.733333,-0.7890079038115292
8.74,0.8828160761695505
8.746667,0.28127193383990967
8.753333,-0.062467576062742225
8.76,-0.1406207085965394
8.766667,-0.1406207085965394
8.773333,-0.09374713906435961
8.78,-0.046873569532179804
8.786667,-0.03906130794348317
8.793333,-0.03906130794348317
8.8,-0.03906130794348317
8.806667,-0.03906130794348317
8.813333,-0.031249046354786536
8.82,-0.023436784766089902
8.826667,-0.015624523177393268
8.833333,-0.007812261588696634
8.84,0.007812261588696634
8.846667,0.02346730141292075
8.853333,0.03127956300161738
8.86,0.03127956300161738
8.866667,0.03909182459031402
8.873333,0.04690408617901065
8.88,0.07034087094510055
8.886667,0.10158991729988709
8.893333,0.125026702065977
8.9,0.15627574842076353
8.906667,0.18752479477555006
8.913333,0.2187738411303366
8.92,0.2656474106625164
8.926667,0.3047087186059996
8.933333,0.34377002654948274
8.94,0.3828313344929659
8.946667,0.41408038084775245
8.953333,0.43751716561384235
8.96,0.46095395037993225
8.966667,0.4765784735573255
8.973333,0.4765784735573255
8.98,0.4687662119686289
8.986667,0.43751716561384235
8.993333,0.39064359608166255
9.0,0.3359577649607861
9.006667,0.27345967225121304
9.013333,0.21096157954163997
9.02,0.1484634868320669
9.026667,0.09377765571119046
9.033333,0.03909182459031402
9.04,-0.007781744941865788
9.046667,-0.046873569532179804
9.053333,-0.0703103542982697
9.06,-0.09374713906435961
9.066667,-0.10937166224175288
9.073333,-0.11718392383044951
9.08,-0.12499618541914614
9.086667,-0.12499618541914614
9.093333,-0.11718392383044951
9.1,-0.10937166224175288
9.106667,-0.10155940065305624
9.113333,-0.09374713906435961
9.12,-0.08593487747566297
9.126667,-0.07812261588696634
9.133333,-0.0703103542982697
9.14,-0.0703103542982697
9.146667,-0.0703103542982697
9.153333,-0.0703103542982697
9.16,-0.06249809270957307
9.166667,-0.05468583112087644
9.173333,-0.05468583112087644
9.18,-0.05468583112087644
9.186667,-0.05468583112087644
9.193333,-0.046873569532179804
9.2,-0.03906130794348317
9.206667,-0.03906130794348317
9.213333,-0.03906130794348317
9.22,-0.046873569532179804
9.226667,-0.05468583112087644
9.233333,-0.05468583112087644
9.24,-0.05468583112087644
9.246667,-0.05468583112087644
9.253333,-0.046873569532179804
9.26,-0.03906130794348317
9.266667,-0.031249046354786536
9.273333,-0.015624523177393268
9.28,0.0
9.286667,0.023436784766089902
9.293333,0.03127956300161738
9.3,0.03909182459031402
9.306667,0.03909182459031402
9.313333,0.03909182459031402
9.32,0.03127956300161738
9.326667,0.02346730141292075
9.333333,0.015655039824224115
9.34,0.007842778235527481
9.346667,3.0516646830846227e-05
9.353333,0.0
9.36,0.0
9.366667,0.023436784766089902
9.373333,0.3125209801946962
9.38,0.9453141688791236
9.386667,-0.6952607647471696
9.393333,-0.6952607647471696
9.4,-0.7733833806341359
9.406667,0.8203179834599774
9.413333,0.2656474106625164
9.42,-0.015594006530562423
9.426667,-0.06249809270957307
9.433333,-0.06249809270957307
9.44,-0.05468583112087644
9.446667,-0.05468583112087644
9.453333,-0.03906130794348317
9.46,-0.031249046354786536
9.466667,-0.031249046354786536
9.473333,-0.031249046354786536
9.48,-0.031249046354786536
9.486667,-0.015624523177393268
9.493333,-0.007812261588696634
9.5,0.0
9.506667,0.0
9.513333,0.0
9.52,0.007812261588696634
9.526667,0.015655039824224115
9.533333,0.03127956300161738
9.54,0.04690408617901065
9.546667,0.07034087094510055
9.553333,0.09377765571119046
9.56,0.125026702065977
9.566667,0.1484634868320669
9.573333,0.17971253318685343
9.58,0.20314931795294333
9.586667,0.22658610271903323
9.593333,0.25783514907381977
9.6,0.28127193383990967
9.606667,0.3125209801946962
9.613333,0.3359577649607861
9.62,0.36720681131557265
9.626667,0.39064359608166255
9.633333,0.41408038084775245
9.64,0.4297049040251457
9.646667,0.4218926424364491
9.653333,0.3984558576703592
9.66,0.3750190729042693
9.666667,0.3281455033720895
9.673333,0.28127193383990967
9.68,0.2187738411303366
9.686667,0.16408801000946016
9.693333,0.10940217888858372
9.7,0.054716347767707285
9.706667,0.007842778235527481
9.713333,-0.023406268119259055
9.72,-0.046873569532179804
9.726667,-0.05468583112087644
9.733333,-0.05468583112087644
9.74,-0.06249809270957307
9.746667,-0.06249809270957307
9.753333,-0.06249809270957307
9.76,-0.05468583112087644
9.766667,-0.046873569532179804
9.773333,-0.046873569532179804
9.78,-0.03906130794348317
9.786667,-0.03906130794348317
9.793333,-0.03906130794348317
9.8,-0.03906130794348317
9.806667,-0.03906130794348317
9.813333,-0.03906130794348317
9.82,-0.03906130794348317
9.826667,-0.03906130794348317
9.833333,-0.031249046354786536
9.84,-0.031249046354786536
9.846667,-0.023436784766089902
9.853333,-0.023436784766089902
9.86,-0.015624523177393268
9.866667,-0.015624523177393268
9.873333,-0.015624523177393268
9.88,-0.015624523177393268
9.886667,-0.015624523177393268
9.893333,-0.007812261588696634
9.9,-0.007812261588696634
9.906667,-0.007812261588696634
9.913333,0.0
9.92,0.0
9.926667,0.007812261588696634
9.933333,0.015655039824224115
9.94,0.02346730141292075
9.946667,0.03127956300161738
9.953333,0.03909182459031402
9.96,0.03909182459031402
9.966667,0.04690408617901065
9.973333,0.04690408617901065
9.98,0.03909182459031402
9.986667,0.03127956300161738
9.993333,0.02346730141292075
10.0,0.015655039824224115
10.006667,0.007842778235527481
10.013333,-0.007781744941865788
10.02,-0.046873569532179804
10.026667,-0.046873569532179804
10.033333,0.10155940065305624
10.04,0.6015746589764717
10.046667,-0.8436937349324056
10.053333,-0.6483871952149898
10.06,-0.6483871952149898
10.066667,0.9843754768226067
10.073333,0.3125209801946962
10.08,-0.03903079129665232
10.086667,-0.09374713906435961
10.093333,-0.09374713906435961
10.1,-0.0703103542982697
10.106667,-0.05468583112087644
10.113333,-0.05468583112087644
10.12,-0.05468583112087644
10.126667,-0.031249046354786536
10.133333,-0.015624523177393268
10.14,-0.007812261588696634
10.146667,-0.015624523177393268
10.153333,-0.023436784766089902
10.16,-0.031249046354786536
10.166667,-0.031249046354786536
10.173333,-0.031249046354786536
10.18,-0.023436784766089902
10.186667,-0.007812261588696634
10.193333,0.007812261588696634
10.2,0.02346730141292075
10.206667,0.04690408617901065
10.213333,0.06252860935640392
10.22,0.08596539412249382
10.226667,0.11721444047728036
10.233333,0.1484634868320669
10.24,0.17971253318685343
10.246667,0.21096157954163997
10.253333,0.25002288748512314
10.26,0.2890841954286063
10.266667,0.3281455033720895
10.273333,0.36720681131557265
10.28,0.4062681192590558
10.286667,0.4218926424364491
10.293333,0.4297049040251457
10.3,0.4297049040251457
10.306667,0.4218926424364491
10.313333,0.3984558576703592
10.32,0.36720681131557265
10.326667,0.32033324178339284
10.333333,0.27345967225121304
10.34,0.2187738411303366
10.346667,0.16408801000946016
10.353333,0.10940217888858372
10.36,0.054716347767707285
10.366667,0.015655039824224115
10.373333,-0.023406268119259055
10.38,-0.05468583112087644
10.386667,-0.0703103542982697
10.393333,-0.07812261588696634
10.4,-0.07812261588696634
10.406667,-0.07812261588696634
10.413333,-0.0703103542982697
10.42,-0.0703103542982697
10.426667,-0.06249809270957307
10.433333,-0.046873569532179804
10.44,-0.03906130794348317
10.446667,-0.031249046354786536
10.453333,-0.015624523177393268
10.46,-0.007812261588696634
10.466667,0.007812261588696634
10.473333,0.015655039824224115
10.48,0.015655039824224115
10.486667,0.02346730141292075
10.493333,0.02346730141292075
10.5,0.03127956300161738
10.506667,0.03127956300161738
10.513333,0.02346730141292075
10.52,0.015655039824224115
10.526667,0.015655039824224115
10.533333,0.02346730141292075
10.54,0.02346730141292075
10.546667,0.02346730141292075
10.553333,0.02346730141292075
10.56,0.015655039824224115
10.566667,0.015655039824224115
10.573333,0.015655039824224115
10.58,0.007842778235527481
10.586667,0.007842778235527481
10.593333,0.007842778235527481
10.6,0.015655039824224115
10.606667,0.02346730141292075
10.613333,0.03127956300161738
10.62,0.02346730141292075
10.626667,0.015655039824224115
10.633333,0.007842778235527481
10.64,0.007842778235527481
10.646667,3.0516646830846227e-05
10.653333,-0.015624523177393268
10.66,-0.023436784766089902
10.666667,-0.031249046354786536
10.673333,-0.015624523177393268
10.68,0.11718392383044951
10.686667,0.531264304678202
10.693333,-0.9765021819402484
10.7,-0.7733833806341359
10.706667,-0.7733833806341359
10.713333,0.8906283377582471
10.72,0.25783514907381977
10.726667,-0.13277793036101193
10.733333,-0.2265555860722024
10.74,-0.2265555860722024
10.746667,-0.17968201654002258
10.753333,-0.12499618541914614
10.76,-0.09374713906435961
10.766667,-0.0703103542982697
10.773333,-0.031249046354786536
10.78,-0.007812261588696634
10.786667,-0.007812261588696634
10.793333,-0.007812261588696634
10.8,-0.015624523177393268
10.806667,-0.015624523177393268
10.813333,0.007812261588696634
10.82,0.02346730141292075
10.826667,0.03909182459031402
10.833333,0.03909182459031402
10.84,0.04690408617901065
10.846667,0.054716347767707285
10.853333,0.06252860935640392
10.86,0.08596539412249382
10.866667,0.10940217888858372
10.873333,0.13283896365467363
10.88,0.15627574842076353
10.886667,0.18752479477555006
10.893333,0.22658610271903323
10.9,0.2656474106625164
10.906667,0.3047087186059996
10.913333,0.3281455033720895
10.92,0.3515822881381794
10.926667,0.3828313344929659
10.933333,0.4062681192590558
10.94,0.4218926424364491
10.946667,0.4297049040251457
10.953333,0.4218926424364491
10.96,0.3984558576703592
10.966667,0.3828313344929659
10.973333,0.3515822881381794
10.98,0.3047087186059996
10.986667,0.23439836430772987
10.993333,0.16408801000946016
11.0,0.09377765571119046
11.006667,0.03909182459031402
11.013333,-0.007781744941865788
11.02,-0.046873569532179804
11.026667,-0.08593487747566297
11.033333,-0.10937166224175288
11.04,-0.12499618541914614
11.046667,-0.12499618541914614
11.053333,-0.12499618541914614
11.06,-0.11718392383044951
11.066667,-0.10937166224175288
11.073333,-0.10155940065305624
11.08,-0.08593487747566297
11.086667,-0.07812261588696634
11.093333,-0.06249809270957307
11.1,-0.05468583112087644
11.106667,-0.046873569532179804
11.113333,-0.03906130794348317
11.12,-0.031249046354786536
11.126667,-0.023436784766089902
11.133333,-0.015624523177393268
11.14,-0.007812261588696634
11.146667,0.0
11.153333,0.0
11.16,0.0
11.166667,0.0
11.173333,0.0
11.18,0.007812261588696634
11.186667,0.02346730141292075
11.193333,0.03127956300161738
11.2,0.03909182459031402
11.206667,0.04690408617901065
11.213333,0.054716347767707285
11.22,0.054716347767707285
11.226667,0.06252860935640392
11.233333,0.06252860935640392
11.24,0.06252860935640392
11.246667,0.054716347767707285
11.253333,0.04690408617901065
11.26,0.03909182459031402
11.266667,0.03909182459031402
11.273333,0.03909182459031402
11.28,0.03127956300161738
11.286667,0.02346730141292075
11.293333,0.007842778235527481
11.3,-0.007781744941865788
11.306667,-0.015624523177393268
11.313333,-0.06249809270957307
11.32,-0.015624523177393268
11.326667,0.28905367878177546
11.333333,0.8750038145808539
11.34,-0.7968201654002258
11.346667,-0.7968201654002258
11.353333,-0.8905673044645854
11.36,0.6875095364521346
11.366667,0.10940217888858372
11.373333,-0.18746376148188837
11.38,-0.24218010924959565
11.386667,-0.24218010924959565
11.393333,-0.21093106289480912
11.4,-0.17186975495132595
11.406667,-0.13280844700784278
11.413333,-0.10937166224175288
11.42,-0.10155940065305624
11.426667,-0.10155940065305624
11.433333,-0.09374713906435961
11.44,-0.08593487747566297
11.446667,-0.08593487747566297
11.453333,-0.08593487747566297
11.46,-0.08593487747566297
11.466667,-0.08593487747566297
11.473333,-0.0703103542982697
11.48,-0.05468583112087644
11.486667,-0.03906130794348317
11.493333,-0.023436784766089902
11.5,0.0
11.506667,0.031249046354786536
11.513333,0.06252860935640392
11.52,0.09377765571119046
11.526667,0.125026702065977
11.533333,0.15627574842076353
11.54,0.18752479477555006
11.546667,0.22658610271903323
11.553333,0.25783514907381977
11.56,0.2890841954286063
11.566667,0.32033324178339284
11.573333,0.3359577649607861
11.58,0.359394549726876
11.586667,0.36720681131557265
11.593333,0.359394549726876
11.6,0.34377002654948274
11.606667,0.32033324178339284
11.613333,0.2890841954286063
11.62,0.25002288748512314
11.626667,0.21096157954163997
11.633333,0.1719002715981568
11.64,0.13283896365467363
11.646667,0.09377765571119046
11.653333,0.054716347767707285
11.66,0.03127956300161738
11.666667,0.015655039824224115
11.673333,-0.007781744941865788
11.68,-0.031249046354786536
11.686667,-0.05468583112087644
11.693333,-0.0703103542982697
11.7,-0.0703103542982697
11.706667,-0.0703103542982697
11.713333,-0.06249809270957307
11.72,-0.05468583112087644
11.726667,-0.046873569532179804
11.733333,-0.03906130794348317
11.74,-0.023436784766089902
11.746667,-0.015624523177393268
11.753333,0.0
11.76,0.0
11.766667,0.007812261588696634
11.773333,0.007842778235527481
11.78,0.015655039824224115
11.786667,0.015655039824224115
11.793333,0.02346730141292075
11.8,0.02346730141292075
11.806667,0.015655039824224115
11.813333,0.007842778235527481
11.82,3.0516646830846227e-05
11.826667,0.0
11.833333,-0.007812261588696634
11.84,0.0
11.846667,0.0
11.853333,0.0
11.86,0.007812261588696634
11.866667,0.007842778235527481
11.873333,0.007842778235527481
11.88,0.015655039824224115
11.886667,0.015655039824224115
11.893333,0.02346730141292075
11.9,0.02346730141292075
11.906667,0.02346730141292075
11.913333,0.007842778235527481
11.92,-0.007781744941865788
11.926667,-0.023436784766089902
11.933333,-0.03906130794348317
11.94,-0.06249809270957307
11.946667,-0.07812261588696634
11.953333,-0.09374713906435961
11.96,-0.10155940065305624
11.966667,-0.10155940065305624
11.973333,0.031249046354786536
11.98,0.46095395037993225
11.986667,-0.9765021819402484
11.993333,-0.7108852879245628
12.0,-0.7108852879245628
12.006667,0.9609386920565168
12.013333,0.32033324178339284
12.02,-0.16402697671579847
12.026667,-0.32811498672525863
12.033333,-0.32811498672525863
12.04,-0.2734291556043822
12.046667,-0.2265555860722024
12.053333,-0.2265555860722024
12.06,-0.23436784766089902
12.066667,-0.2578046324269889
12.073333,-0.2812414171930788
12.08,-0.2812414171930788
12.086667,-0.2578046324269889
12.093333,-0.24218010924959565
12.1,-0.24218010924959565
12.106667,-0.23436784766089902
12.113333,-0.23436784766089902
12.12,-0.2265555860722024
12.126667,-0.21874332448350575
12.133333,-0.20311880130611248
12.14,-0.18749427812871922
12.146667,-0.16405749336262931
12.153333,-0.14843297018523605
12.16,-0.12499618541914614
12.166667,-0.10155940065305624
12.173333,-0.08593487747566297
12.18,-0.0703103542982697
12.186667,-0.046873569532179804
12.193333,-0.007812261588696634
12.2,0.046873569532179804
12.206667,0.11721444047728036
12.213333,0.21096157954163997
12.22,0.3047087186059996
12.226667,0.3984558576703592
12.233333,0.4922029967347188
12.24,0.5781378742103818
12.246667,0.6484482285086515
12.253333,0.6875095364521346
12.26,0.7031340596295279
12.266667,0.6875095364521346
12.273333,0.6562604900973481
12.28,0.6250114437425616
12.286667,0.5859501357990784
12.293333,0.5390765662668986
12.3,0.48439073514602216
12.306667,0.43751716561384235
12.313333,0.39064359608166255
12.32,0.359394549726876
12.326667,0.3359577649607861
12.333333,0.32033324178339284
12.34,0.3125209801946962
12.346667,0.3047087186059996
12.353333,0.3047087186059996
12.36,0.3125209801946962
12.366667,0.32033324178339284
12.373333,0.32033324178339284
12.38,0.32033324178339284
12.386667,0.3281455033720895
12.393333,0.3359577649607861
12.4,0.3359577649607861
12.406667,0.34377002654948274
12.413333,0.3359577649607861
12.42,0.3359577649607861
12.426667,0.3359577649607861
12.433333,0.3359577649607861
12.44,0.3281455033720895
12.446667,0.3125209801946962
12.453333,0.3047087186059996
12.46,0.2890841954286063
12.466667,0.28127193383990967
12.473333,0.2656474106625164
12.48,0.25002288748512314
12.486667,0.22658610271903323
12.493333,0.20314931795294333
12.5,0.1719002715981568
12.506667,0.1484634868320669
12.513333,0.11721444047728036
12.52,0.09377765571119046
12.526667,0.07815313253379719
12.533333,0.054716347767707285
12.54,0.03127956300161738
12.546667,0.015655039824224115
12.553333,0.007842778235527481
12.56,3.0516646830846227e-05
12.566667,-0.007812261588696634
12.573333,-0.023436784766089902
12.58,-0.05468583112087644
12.586667,-0.07812261588696634
12.593333,-0.10155940065305624
12.6,-0.13280844700784278
12.606667,-0.16405749336262931
12.613333,-0.19530653971741585
12.62,-0.2265555860722024
12.626667,-0.2812414171930788
12.633333,-0.2812414171930788
12.64,-0.16405749336262931
12.646667,0.26561689401568556
12.653333,0.8984405993469438
12.66,-0.7890079038115292
12.666667,-0.7890079038115292
12.673333,0.8750038145808539
12.68,0.21096157954163997
12.686667,-0.2655863773688547
12.693333,-0.42186212578961824
12.7,-0.42186212578961824
12.706667,-0.4140498642009216
12.713333,-0.3906130794348317
12.72,-0.38280081784613507
12.726667,-0.37498855625743843
12.733333,-0.31249046354786536
12.74,-0.21093106289480912
12.746667,-0.14843297018523605
12.753333,-0.12499618541914614
12.76,-0.11718392383044951
12.766667,-0.11718392383044951
12.773333,-0.10937166224175288
12.78,-0.09374713906435961
12.786667,-0.08593487747566297
12.793333,-0.08593487747566297
12.8,-0.07812261588696634
12.806667,-0.06249809270957307
12.813333,-0.03906130794348317
12.82,-0.007812261588696634
12.826667,0.031249046354786536
12.833333,0.07034087094510055
12.84,0.11721444047728036
12.846667,0.15627574842076353
12.853333,0.20314931795294333
12.86,0.2422106258964265
12.866667,0.28127193383990967
12.873333,0.32033324178339284
12.88,0.3515822881381794
12.886667,0.3828313344929659
12.893333,0.4062681192590558
12.9,0.4218926424364491
12.906667,0.4297049040251457
12.913333,0.4218926424364491
12.92,0.4062681192590558
12.926667,0.3750190729042693
12.933333,0.3281455033720895
12.94,0.28127193383990967
12.946667,0.23439836430772987
12.953333,0.17971253318685343
12.96,0.13283896365467363
12.966667,0.08596539412249382
12.973333,0.04690408617901065
12.98,0.007842778235527481
12.986667,-0.023406268119259055
12.993333,-0.05468583112087644
13.0,-0.0703103542982697
13.006667,-0.08593487747566297
13.013333,-0.10155940065305624
13.02,-0.10937166224175288
13.026667,-0.11718392383044951
13.033333,-0.12499618541914614
13.04,-0.12499618541914614
13.046667,-0.13280844700784278
13.053333,-0.12499618541914614
13.06,-0.12499618541914614
13.066667,-0.11718392383044951
13.073333,-0.11718392383044951
13.08,-0.10937166224175288
13.086667,-0.10937166224175288
13.093333,-0.10155940065305624
13.1,-0.10155940065305624
13.106667,-0.10155940065305624
13.113333,-0.10155940065305624
13.12,-0.09374713906435961
13.126667,-0.09374713906435961
13.133333,-0.07812261588696634
13.14,-0.06249809270957307
13.146667,-0.05468583112087644
13.153333,-0.046873569532179804
13.16,-0.046873569532179804
13.166667,-0.05468583112087644
13.173333,-0.05468583112087644
13.18,-0.046873569532179804
13.186667,-0.03906130794348317
13.193333,-0.03906130794348317
13.2,-0.031249046354786536
13.206667,-0.023436784766089902
13.213333,-0.007812261588696634
13.22,0.015624523177393268
13.226667,0.03127956300161738
13.233333,0.04690408617901065
13.24,0.054716347767707285
13.246667,0.054716347767707285
13.253333,0.054716347767707285
13.26,0.03909182459031402
13.266667,0.03127956300161738
13.273333,0.015655039824224115
13.28,3.0516646830846227e-05
13.286667,-0.007812261588696634
13.293333,-0.015624523177393268
13.3,-0.023436784766089902
13.306667,-0.03906130794348317
13.313333,-0.03906130794348317
13.32,0.24218010924959565
13.326667,0.8750038145808539
13.333333,-0.7577588574567427
13.34,-0.7577588574567427
13.346667,-0.8280692117550124
13.353333,0.7500076291617077
13.36,0.13283896365467363
13.366667,-0.1249656687723153
13.373333,-0.1406207085965394
13.38,-0.1406207085965394
13.386667,-0.13280844700784278
13.393333,-0.13280844700784278
13.4,-0.13280844700784278
13.406667,-0.13280844700784278
13.413333,-0.11718392383044951
13.42,-0.10155940065305624
13.426667,-0.08593487747566297
13.433333,-0.0703103542982697
13.44,-0.05468583112087644
13.446667,-0.046873569532179804
13.453333,-0.031249046354786536
13.46,-0.015624523177393268
13.466667,-0.007812261588696634
13.473333,0.007812261588696634
13.48,0.015655039824224115
13.486667,0.015655039824224115
13.493333,0.03909182459031402
13.5,0.06252860935640392
13.506667,0.08596539412249382
13.513333,0.10940217888858372
13.52,0.125026702065977
13.526667,0.15627574842076353
13.533333,0.1953370563642467
13.54,0.2422106258964265
13.546667,0.29689645701730294
13.553333,0.3359577649607861
13.56,0.3750190729042693
13.566667,0.41408038084775245
13.573333,0.445329427202539
13.58,0.46095395037993225
13.586667,0.46095395037993225
13.593333,0.445329427202539
13.6,0.41408038084775245
13.606667,0.3828313344929659
13.613333,0.3359577649607861
13.62,0.28127193383990967
13.626667,0.22658610271903323
13.633333,0.1719002715981568
13.64,0.13283896365467363
13.646667,0.08596539412249382
13.653333,0.04690408617901065
13.66,0.015655039824224115
13.666667,-0.007781744941865788
13.673333,-0.015624523177393268
13.68,-0.015624523177393268
13.686667,-0.015624523177393268
13.693333,-0.023436784766089902
13.7,-0.03906130794348317
13.706667,-0.03906130794348317
13.713333,-0.046873569532179804
13.72,-0.046873569532179804
13.726667,-0.05468583112087644
13.733333,-0.05468583112087644
13.74,-0.05468583112087644
13.746667,-0.046873569532179804
13.753333,-0.031249046354786536
13.76,-0.023436784766089902
13.766667,-0.007812261588696634
13.773333,0.0
13.78,0.007812261588696634
13.786667,0.007842778235527481
13.793333,0.007842778235527481
13.8,0.007842778235527481
13.806667,0.007842778235527481
13.813333,0.007842778235527481
13.82,3.0516646830846227e-05
13.826667,0.0
13.833333,-0.007812261588696634
13.84,0.0
13.846667,0.0
13.853333,0.0
13.86,0.0
13.866667,0.007812261588696634
13.873333,0.015655039824224115
13.88,0.02346730141292075
13.886667,0.03909182459031402
13.893333,0.04690408617901065
13.9,0.054716347767707285
13.906667,0.04690408617901065
13.913333,0.03127956300161738
13.92,0.015655039824224115
13.926667,-0.007781744941865788
13.933333,-0.023436784766089902
13.94,-0.03906130794348317
13.946667,-0.05468583112087644
13.953333,-0.05468583112087644
13.96,-0.046873569532179804
13.966667,0.015624523177393268
13.973333,0.08596539412249382
13.98,0.445329427202539
13.986667,1.0
13.993333,-0.7343220726906527
14.0,-0.7343220726906527
14.006667,0.9531264304678202
14.013333,0.359394549726876
14.02,-0.03903079129665232
14.026667,-0.16405749336262931
14.033333,-0.16405749336262931
14.04,-0.13280844700784278
14.046667,-0.10937166224175288
14.053333,-0.10155940065305624
14.06,-0.10155940065305624
14.066667,-0.09374713906435961
14.073333,-0.08593487747566297
14.08,-0.07812261588696634
14.086667,-0.03906130794348317
14.093333,0.0
14.1,0.015624523177393268
14.106667,0.015655039824224115
14.113333,0.007842778235527481
14.12,0.007842778235527481
14.126667,0.015655039824224115
14.133333,0.03909182459031402
14.14,0.054716347767707285
14.146667,0.07034087094510055
14.153333,0.08596539412249382
14.16,0.10940217888858372
14.166667,0.14065122524337026
14.173333,0.17971253318685343
14.18,0.21096157954163997
14.186667,0.2422106258964265
14.193333,0.27345967225121304
14.2,0.3125209801946962
14.206667,0.34377002654948274
14.213333,0.3828313344929659
14.22,0.41408038084775245
14.226667,0.4297049040251457
14.233333,0.445329427202539
14.24,0.445329427202539
14.246667,0.445329427202539
14.253333,0.4297049040251457
14.26,0.4062681192590558
14.266667,0.3750190729042693
14.273333,0.3359577649607861
14.28,0.28127193383990967
14.286667,0.2187738411303366
14.293333,0.16408801000946016
14.3,0.10940217888858372
14.306667,0.06252860935640392
14.313333,0.015655039824224115
14.32,-0.023406268119259055
14.326667,-0.046873569532179804
14.333333,-0.05468583112087644
14.34,-0.06249809270957307
14.346667,-0.0703103542982697
14.353333,-0.0703103542982697
14.36,-0.0703103542982697
14.366667,-0.07812261588696634
14.373333,-0.07812261588696634
14.38,-0.07812261588696634
14.386667,-0.07812261588696634
14.393333,-0.07812261588696634
14.4,-0.07812261588696634
14.406667,-0.06249809270957307
14.413333,-0.05468583112087644
14.42,-0.046873569532179804
14.426667,-0.03906130794348317
14.433333,-0.031249046354786536
14.44,-0.031249046354786536
14.446667,-0.031249046354786536
14.453333,-0.031249046354786536
14.46,-0.03906130794348317
14.466667,-0.05468583112087644
14.473333,-0.06249809270957307
14.48,-0.0703103542982697
14.486667,-0.0703103542982697
14.493333,-0.06249809270957307
14.5,-0.046873569532179804
14.506667,-0.046873569532179804
14.513333,-0.03906130794348317
14.52,-0.031249046354786536
14.526667,-0.023436784766089902
14.533333,-0.007812261588696634
14.54,0.007812261588696634
14.546667,0.015655039824224115
14.553333,0.015655039824224115
14.56,0.015655039824224115
14.566667,0.015655039824224115
14.573333,0.015655039824224115
14.58,0.02346730141292075
14.586667,0.02346730141292075
14.593333,0.015655039824224115
14.6,0.007842778235527481
14.606667,3.0516646830846227e-05
14.613333,0.0
14.62,-0.03906130794348317
14.626667,0.007812261588696634
14.633333,0.3047087186059996
14.64,0.8984405993469438
14.646667,-0.7733833806341359
14.653333,-0.7733833806341359
14.66,-0.8593182581097989
14.666667,0.7578198907504043
14.673333,0.22658610271903323
14.68,-0.1015288840062254
14.686667,-0.21874332448350575
14.693333,-0.21874332448350575
14.7,-0.17968201654002258
14.706667,-0.10937166224175288
14.713333,-0.06249809270957307
14.72,-0.05468583112087644
14.726667,-0.046873569532179804
14.733333,-0.031249046354786536
14.74,0.0
14.746667,0.031249046354786536
14.753333,0.03127956300161738
14.76,0.03127956300161738
14.766667,0.03127956300161738
14.773333,0.03127956300161738
14.78,0.03909182459031402
14.786667,0.04690408617901065
14.793333,0.054716347767707285
14.8,0.06252860935640392
14.806667,0.08596539412249382
14.813333,0.10940217888858372
14.82,0.13283896365467363
14.826667,0.15627574842076353
14.833333,0.18752479477555006
14.84,0.21096157954163997
14.846667,0.25002288748512314
14.853333,0.28127193383990967
14.86,0.3281455033720895
14.866667,0.359394549726876
14.873333,0.3984558576703592
14.88,0.4218926424364491
14.886667,0.43751716561384235
14.893333,0.4531416887912356
14.9,0.4531416887912356
14.906667,0.43751716561384235
14.913333,0.4062681192590558
14.92,0.36720681131557265
14.926667,0.3281455033720895
14.933333,0.2890841954286063
14.94,0.25002288748512314
14.946667,0.20314931795294333
14.953333,0.1484634868320669
14.96,0.09377765571119046
14.966667,0.04690408617901065
14.973333,0.007842778235527481
14.98,-0.03121852970795569
14.986667,-0.06249809270957307
14.993333,-0.08593487747566297
15.0,-0.10155940065305624
15.006667,-0.09374713906435961
15.013333,-0.07812261588696634
15.02,-0.06249809270957307
15.026667,-0.046873569532179804
15.033333,-0.03906130794348317
15.04,-0.023436784766089902
15.046667,-0.023436784766089902
15.053333,-0.015624523177393268
15.06,-0.015624523177393268
15.066667,-0.015624523177393268
15.073333,-0.015624523177393268
15.08,-0.015624523177393268
15.086667,-0.015624523177393268
15.093333,-0.015624523177393268
15.1,-0.015624523177393268
15.106667,-0.015624523177393268
15.113333,-0.023436784766089902
15.12,-0.031249046354786536
15.126667,-0.03906130794348317
15.133333,-0.05468583112087644
15.14,-0.05468583112087644
15.146667,-0.06249809270957307
15.153333,-0.06249809270957307
15.16,-0.06249809270957307
15.166667,-0.05468583112087644
15.173333,-0.03906130794348317
15.18,-0.031249046354786536
15.186667,-0.023436784766089902
15.193333,-0.015624523177393268
15.2,-0.007812261588696634
15.206667,0.0
15.213333,0.007812261588696634
15.22,0.015655039824224115
15.226667,0.015655039824224115
15.233333,0.015655039824224115
15.24,0.015655039824224115
15.246667,0.015655039824224115
15.253333,0.007842778235527481
15.26,0.007842778235527481
15.266667,3.0516646830846227e-05
15.273333,-0.007812261588696634
15.28,-0.007812261588696634
15.286667,0.0
15.293333,0.0
15.3,0.21093106289480912
15.306667,0.7578198907504043
15.313333,-0.7890079038115292
15.32,-0.6796362415697763
15.326667,-0.6796362415697763
15.333333,0.9687509536452135
15.34,0.34377002654948274
15.346667,-0.007781744941865788
15.353333,-0.06249809270957307
15.36,-0.06249809270957307
15.366667,-0.06249809270957307
15.373333,-0.0703103542982697
15.38,-0.07812261588696634
15.386667,-0.0703103542982697
15.393333,-0.03906130794348317
15.4,0.0
15.406667,0.007812261588696634
15.413333,0.007842778235527481
15.42,0.007842778235527481
15.426667,0.007842778235527481
15.433333,0.015655039824224115
15.44,0.015655039824224115
15.446667,0.02346730141292075
15.453333,0.02346730141292075
15.46,0.03909182459031402
15.466667,0.054716347767707285
15.473333,0.07815313253379719
15.48,0.10158991729988709
15.486667,0.125026702065977
15.493333,0.15627574842076353
15.5,0.18752479477555006
15.506667,0.2187738411303366
15.513333,0.25002288748512314
15.52,0.28127193383990967
15.526667,0.3047087186059996
15.533333,0.3281455033720895
15.54,0.359394549726876
15.546667,0.3828313344929659
15.553333,0.4062681192590558
15.56,0.4062681192590558
15.566667,0.4062681192590558
15.573333,0.3984558576703592
15.58,0.3828313344929659
15.586667,0.359394549726876
15.593333,0.32033324178339284
15.6,0.27345967225121304
15.606667,0.2187738411303366
15.613333,0.16408801000946016
15.62,0.10158991729988709
15.626667,0.04690408617901065
15.633333,0.007842778235527481
15.64,-0.023406268119259055
15.646667,-0.046873569532179804
15.653333,-0.0703103542982697
15.66,-0.08593487747566297
15.666667,-0.08593487747566297
15.673333,-0.08593487747566297
15.68,-0.07812261588696634
15.686667,-0.0703103542982697
15.693333,-0.06249809270957307
15.7,-0.05468583112087644
15.706667,-0.046873569532179804
15.713333,-0.03906130794348317
15.72,-0.023436784766089902
15.726667,-0.015624523177393268
15.733333,-0.007812261588696634
15.74,0.0
15.746667,0.0
15.753333,0.007812261588696634
15.76,0.007842778235527481
15.766667,0.015655039824224115
15.773333,0.02346730141292075
15.78,0.02346730141292075
15.786667,0.02346730141292075
15.793333,0.02346730141292075
15.8,0.02346730141292075
15.806667,0.015655039824224115
15.813333,0.007842778235527481
15.82,3.0516646830846227e-05
15.826667,-0.007812261588696634
15.833333,-0.015624523177393268
15.84,-0.015624523177393268
15.846667,-0.015624523177393268
15.853333,-0.015624523177393268
15.86,-0.007812261588696634
15.866667,0.0
15.873333,0.007812261588696634
15.88,0.007842778235527481
15.886667,0.015655039824224115
15.893333,0.015655039824224115
15.9,0.02346730141292075
15.906667,0.03127956300161738
15.913333,0.03909182459031402
15.92,0.04690408617901065
15.926667,0.054716347767707285
15.933333,0.06252860935640392
15.94,0.054716347767707285
15.946667,0.04690408617901065
15.953333,0.03909182459031402
15.96,0.02346730141292075
15.966667,3.0516646830846227e-05
15.973333,-0.023436784766089902
15.98,-0.10937166224175288
15.986667,-0.10937166224175288
15.993333,0.10937166224175288
16.0,0.6640727516860447
16.006667,-0.7968201654002258
16.013333,-0.5937013640941133
16.02,-0.5937013640941133
16.026667,-0.9296286124080686
16.033333,0.4297049040251457
16.04,-0.007781744941865788
16.046667,-0.14843297018523605
16.053333,-0.14843297018523605
16.06,-0.10155940065305624
16.066667,-0.06249809270957307
16.073333,-0.06249809270957307
16.08,-0.05468583112087644
16.086667,-0.046873569532179804
16.093333,-0.015624523177393268
16.1,0.015624523177393268
16.106667,0.03127956300161738
16.113333,0.03127956300161738
16.12,0.02346730141292075
16.126667,0.02346730141292075
16.133333,0.02346730141292075
16.14,0.03127956300161738
16.146667,0.04690408617901065
16.153333,0.054716347767707285
16.16,0.07034087094510055
16.166667,0.09377765571119046
16.173333,0.125026702065977
16.18,0.15627574842076353
16.186667,0.18752479477555006
16.193333,0.21096157954163997
16.2,0.2422106258964265
16.206667,0.28127193383990967
16.213333,0.3125209801946962
16.22,0.3515822881381794
16.226667,0.3828313344929659
16.233333,0.41408038084775245
16.24,0.43751716561384235
16.246667,0.4687662119686289
16.253333,0.4922029967347188
16.26,0.5078275199121121
16.266667,0.5000152583234154
16.273333,0.4765784735573255
16.28,0.4531416887912356
16.286667,0.4297049040251457
16.293333,0.3984558576703592
16.3,0.34377002654948274
16.306667,0.28127193383990967
16.313333,0.2187738411303366
16.32,0.15627574842076353
16.326667,0.10940217888858372
16.333333,0.06252860935640392
16.34,0.015655039824224115
16.346667,-0.015594006530562423
16.353333,-0.03906130794348317
16.36,-0.046873569532179804
16.366667,-0.046873569532179804
16.373333,-0.046873569532179804
16.38,-0.03906130794348317
16.386667,-0.03906130794348317
16.393333,-0.031249046354786536
16.4,-0.023436784766089902
16.406667,-0.007812261588696634
16.413333,-0.007812261588696634
16.42,0.0
16.426667,0.0
16.433333,-0.007812261588696634
16.44,-0.007812261588696634
16.446667,-0.015624523177393268
16.453333,-0.023436784766089902
16.46,-0.031249046354786536
16.466667,-0.031249046354786536
16.473333,-0.023436784766089902
16.48,-0.015624523177393268
16.486667,-0.015624523177393268
16.493333,-0.007812261588696634
16.5,-0.007812261588696634
16.506667,-0.007812261588696634
16.513333,-0.015624523177393268
16.52,-0.023436784766089902
16.526667,-0.023436784766089902
16.533333,-0.031249046354786536
16.54,-0.031249046354786536
16.546667,-0.023436784766089902
16.553333,-0.015624523177393268
16.56,0.0
16.566667,0.007812261588696634
16.573333,0.015655039824224115
16.58,0.02346730141292075
16.586667,0.02346730141292075
16.593333,0.02346730141292075
16.6,0.03127956300161738
16.606667,0.03127956300161738
16.613333,0.03127956300161738
16.62,0.015655039824224115
16.626667,3.0516646830846227e-05
16.633333,0.0
16.64,-0.007812261588696634
16.646667,-0.015624523177393268
16.653333,-0.023436784766089902
16.66,-0.031249046354786536
16.666667,-0.03906130794348317
16.673333,-0.10155940065305624
16.68,-0.10155940065305624
16.686667,0.06249809270957307
16.693333,0.5703256126216851
16.7,-0.8827550428758888
16.706667,-0.687448503158473
16.713333,-0.687448503158473
16.72,0.9375019072904269
16.726667,0.2890841954286063
16.733333,-0.023406268119259055
16.74,-0.046873569532179804
16.746667,-0.046873569532179804
16.753333,-0.03906130794348317
16.76,-0.046873569532179804
16.766667,-0.05468583112087644
16.773333,-0.05468583112087644
16.78,-0.046873569532179804
16.786667,-0.015624523177393268
16.793333,0.015624523177393268
16.8,0.02346730141292075
16.806667,0.03127956300161738
16.813333,0.03127956300161738
16.82,0.03909182459031402
16.826667,0.04690408617901065
16.833333,0.054716347767707285
16.84,0.06252860935640392
16.846667,0.06252860935640392
16.853333,0.07034087094510055
16.86,0.08596539412249382
16.866667,0.10940217888858372
16.873333,0.14065122524337026
16.88,0.16408801000946016
16.886667,0.1953370563642467
16.893333,0.23439836430772987
16.9,0.27345967225121304
16.906667,0.3125209801946962
16.913333,0.3515822881381794
16.92,0.3828313344929659
16.926667,0.41408038084775245
16.933333,0.4297049040251457
16.94,0.4531416887912356
16.946667,0.46095395037993225
16.953333,0.4531416887912356
16.96,0.43751716561384235
16.966667,0.41408038084775245
16.973333,0.39064359608166255
16.98,0.359394549726876
16.986667,0.3125209801946962
16.993333,0.2656474106625164
17.0,0.21096157954163997
17.006667,0.16408801000946016
17.013333,0.125026702065977
17.02,0.08596539412249382
17.026667,0.04690408617901065
17.033333,0.007842778235527481
17.04,-0.015594006530562423
17.046667,-0.031249046354786536
17.053333,-0.03906130794348317
17.06,-0.046873569532179804
17.066667,-0.046873569532179804
17.073333,-0.03906130794348317
17.08,-0.031249046354786536
17.086667,-0.023436784766089902
17.093333,-0.007812261588696634
17.1,0.0
17.106667,0.007812261588696634
17.113333,0.015655039824224115
17.12,0.03127956300161738
17.126667,0.03909182459031402
17.133333,0.04690408617901065
17.14,0.04690408617901065
17.146667,0.03909182459031402
17.153333,0.03127956300161738
17.16,0.02346730141292075
17.166667,0.015655039824224115
17.173333,3.0516646830846227e-05
17.18,-0.015624523177393268
17.186667,-0.023436784766089902
17.193333,-0.031249046354786536
17.2,-0.031249046354786536
17.206667,-0.023436784766089902
17.213333,-0.023436784766089902
17.22,-0.015624523177393268
17.226667,-0.007812261588696634
17.233333,0.0
17.24,0.0
17.246667,0.0
17.253333,0.0
17.26,0.0
17.266667,0.007812261588696634
17.273333,3.0516646830846227e-05
17.28,-0.007812261588696634
17.286667,-0.015624523177393268
17.293333,-0.031249046354786536
17.3,-0.046873569532179804
17.306667,-0.05468583112087644
17.313333,-0.0703103542982697
17.32,-0.07812261588696634
17.326667,-0.08593487747566297
17.333333,-0.09374713906435961
17.34,-0.09374713906435961
17.346667,-0.07812261588696634
17.353333,0.4374866489670115
17.36,0.9453141688791236
17.366667,-0.8515059965211023
17.373333,-0.8515059965211023
17.38,0.8359425066373707
17.386667,0.25002288748512314
17.393333,-0.1015288840062254
17.4,-0.19530653971741585
17.406667,-0.19530653971741585
17.413333,-0.15624523177393268
17.42,-0.10155940065305624
17.426667,-0.06249809270957307
17.433333,-0.046873569532179804
17.44,-0.03906130794348317
17.446667,-0.03906130794348317
17.453333,-0.046873569532179804
17.46,-0.046873569532179804
17.466667,-0.03906130794348317
17.473333,-0.015624523177393268
17.48,0.023436784766089902
17.486667,0.07815313253379719
17.493333,0.10158991729988709
17.5,0.10940217888858372
17.506667,0.11721444047728036
17.513333,0.125026702065977
17.52,0.14065122524337026
17.526667,0.1484634868320669
17.533333,0.16408801000946016
17.54,0.1953370563642467
17.546667,0.22658610271903323
17.553333,0.25783514907381977
17.56,0.2890841954286063
17.566667,0.32033324178339284
17.573333,0.3515822881381794
17.58,0.3828313344929659
17.586667,0.41408038084775245
17.593333,0.445329427202539
17.6,0.46095395037993225
17.606667,0.4765784735573255
17.613333,0.4922029967347188
17.62,0.4922029967347188
17.626667,0.48439073514602216
17.633333,0.46095395037993225
17.64,0.41408038084775245
17.646667,0.36720681131557265
17.653333,0.3125209801946962
17.66,0.25783514907381977
17.666667,0.1953370563642467
17.673333,0.13283896365467363
17.68,0.08596539412249382
17.686667,0.04690408617901065
17.693333,0.015655039824224115
17.7,-0.007781744941865788
17.706667,-0.031249046354786536
17.713333,-0.03906130794348317
17.72,-0.03906130794348317
17.726667,-0.03906130794348317
17.733333,-0.031249046354786536
17.74,-0.023436784766089902
17.746667,-0.007812261588696634
17.753333,0.0
17.76,0.007812261588696634
17.766667,0.02346730141292075
17.773333,0.03127956300161738
17.78,0.03127956300161738
17.786667,0.03127956300161738
17.793333,0.03127956300161738
17.8,0.02346730141292075
17.806667,0.02346730141292075
17.813333,0.015655039824224115
17.82,0.007842778235527481
17.826667,0.007842778235527481
17.833333,3.0516646830846227e-05
17.84,0.0
17.846667,0.007812261588696634
17.853333,0.007842778235527481
17.86,0.007842778235527481
17.866667,0.007842778235527481
17.873333,3.0516646830846227e-05
17.88,0.0
17.886667,0.0
17.893333,-0.007812261588696634
17.9,-0.015624523177393268
17.906667,-0.023436784766089902
17.913333,-0.023436784766089902
17.92,-0.015624523177393268
17.926667,-0.015624523177393268
17.933333,-0.023436784766089902
17.94,-0.031249046354786536
17.946667,-0.03906130794348317
17.953333,-0.03906130794348317
17.96,-0.05468583112087644
17.966667,-0.0703103542982697
17.973333,-0.08593487747566297
17.98,-0.09374713906435961
17.986667,-0.10937166224175288
17.993333,-0.17968201654002258
18.0,-0.17968201654002258
18.006667,0.07812261588696634
18.013333,0.6875095364521346
18.02,-0.9530653971741585
18.026667,-0.9452531355854619
18.033333,-0.9530653971741585
18.04,0.7031340596295279
18.046667,0.13283896365467363
18.053333,-0.14059019194970857
18.06,-0.17968201654002258
18.066667,-0.17968201654002258
18.073333,-0.16405749336262931
18.08,-0.1406207085965394
18.086667,-0.12499618541914614
18.093333,-0.10155940065305624
18.1,-0.0703103542982697
18.106667,-0.046873569532179804
18.113333,-0.031249046354786536
18.12,-0.023436784766089902
18.126667,-0.023436784766089902
18.133333,-0.023436784766089902
18.14,-0.023436784766089902
18.146667,-0.007812261588696634
18.153333,0.007812261588696634
18.16,0.02346730141292075
18.166667,0.03127956300161738
18.173333,0.04690408617901065
18.18,0.06252860935640392
18.186667,0.08596539412249382
18.193333,0.10940217888858372
18.2,0.125026702065977
18.206667,0.1484634868320669
18.213333,0.1719002715981568
18.22,0.1953370563642467
18.226667,0.22658610271903323
18.233333,0.2656474106625164
18.24,0.3047087186059996
18.246667,0.34377002654948274
18.253333,0.3750190729042693
18.26,0.3984558576703592
18.266667,0.4218926424364491
18.273333,0.4297049040251457
18.28,0.4297049040251457
18.286667,0.3984558576703592
18.293333,0.359394549726876
18.3,0.3125209801946962
18.306667,0.27345967225121304
18.313333,0.22658610271903323
18.32,0.17971253318685343
18.326667,0.13283896365467363
18.333333,0.08596539412249382
18.34,0.04690408617901065
18.346667,0.015655039824224115
18.353333,-0.015594006530562423
18.36,-0.03906130794348317
18.366667,-0.06249809270957307
18.373333,-0.07812261588696634
18.38,-0.08593487747566297
18.386667,-0.09374713906435961
18.393333,-0.09374713906435961
18.4,-0.09374713906435961
18.406667,-0.08593487747566297
18.413333,-0.07812261588696634
18.42,-0.0703103542982697
18.426667,-0.0703103542982697
18.433333,-0.0703103542982697
18.44,-0.07812261588696634
18.446667,-0.07812261588696634
18.453333,-0.0703103542982697
18.46,-0.07812261588696634
18.466667,-0.07812261588696634
18.473333,-0.08593487747566297
18.48,-0.09374713906435961
18.486667,-0.10155940065305624
18.493333,-0.10155940065305624
18.5,-0.09374713906435961
18.506667,-0.08593487747566297
18.513333,-0.07812261588696634
18.52,-0.07812261588696634
18.526667,-0.0703103542982697
18.533333,-0.05468583112087644
18.54,-0.046873569532179804
18.546667,-0.046873569532179804
18.553333,-0.046873569532179804
18.56,-0.046873569532179804
18.566667,-0.05468583112087644
18.573333,-0.05468583112087644
18.58,-0.046873569532179804
18.586667,-0.03906130794348317
18.593333,-0.031249046354786536
18.6,-0.015624523177393268
18.606667,0.0
18.613333,0.007812261588696634
18.62,0.007842778235527481
18.626667,3.0516646830846227e-05
18.633333,-0.007812261588696634
18.64,-0.015624523177393268
18.646667,-0.023436784766089902
18.653333,-0.031249046354786536
18.66,-0.03906130794348317
18.666667,0.0
18.673333,0.015624523177393268
18.68,0.2656474106625164
18.686667,0.851567029814764
18.693333,-0.8046324269889225
18.7,-0.8046324269889225
18.706667,-0.8515059965211023
18.713333,0.7968811986938875
18.72,0.25783514907381977
18.726667,-0.015594006530562423
18.733333,-0.0703103542982697
18.74,-0.0703103542982697
18.746667,-0.06249809270957307
18.753333,-0.06249809270957307
18.76,-0.0703103542982697
18.766667,-0.0703103542982697
18.773333,-0.05468583112087644
18.78,-0.023436784766089902
18.786667,0.007812261588696634
18.793333,0.015655039824224115
18.8,0.015655039824224115
18.806667,0.015655039824224115
18.813333,0.015655039824224115
18.82,0.015655039824224115
18.826667,0.02346730141292075
18.833333,0.03127956300161738
18.84,0.03909182459031402
18.846667,0.04690408617901065
18.853333,0.06252860935640392
18.86,0.08596539412249382
18.866667,0.11721444047728036
18.873333,0.1484634868320669
18.88,0.17971253318685343
18.886667,0.21096157954163997
18.893333,0.2422106258964265
18.9,0.2890841954286063
18.906667,0.3281455033720895
18.913333,0.359394549726876
18.92,0.3828313344929659
18.926667,0.4062681192590558
18.933333,0.4297049040251457
18.94,0.43751716561384235
18.946667,0.43751716561384235
18.953333,0.41408038084775245
18.96,0.39064359608166255
18.966667,0.3515822881381794
18.973333,0.3125209801946962
18.98,0.2656474106625164
18.986667,0.2187738411303366
18.993333,0.1719002715981568
19.0,0.125026702065977
19.006667,0.08596539412249382
19.013333,0.03909182459031402
19.02,3.0516646830846227e-05
19.026667,-0.03906130794348317
19.033333,-0.05468583112087644
19.04,-0.06249809270957307
19.046667,-0.06249809270957307
19.053333,-0.06249809270957307
19.06,-0.06249809270957307
19.066667,-0.046873569532179804
19.073333,-0.03906130794348317
19.08,-0.023436784766089902
19.086667,-0.015624523177393268
19.093333,-0.015624523177393268
19.1,-0.015624523177393268
19.106667,-0.015624523177393268
19.113333,-0.007812261588696634
19.12,0.0
19.126667,0.007812261588696634
19.133333,0.015655039824224115
19.14,0.02346730141292075
19.146667,0.02346730141292075
19.153333,0.02346730141292075
19.16,0.015655039824224115
19.166667,0.007842778235527481
19.173333,3.0516646830846227e-05
19.18,-0.007812261588696634
19.186667,-0.007812261588696634
19.193333,-0.007812261588696634
19.2,0.0
19.206667,0.0
19.213333,0.0
19.22,0.007812261588696634
19.226667,0.007842778235527481
19.233333,0.007842778235527481
19.24,3.0516646830846227e-05
19.246667,-0.015624523177393268
19.253333,-0.023436784766089902
19.26,-0.031249046354786536
19.266667,-0.03906130794348317
19.273333,-0.03906130794348317
19.28,-0.031249046354786536
19.286667,-0.023436784766089902
19.293333,-0.007812261588696634
19.3,-0.007812261588696634
19.306667,-0.007812261588696634
19.313333,-0.007812261588696634
19.32,-0.015624523177393268
19.326667,-0.023436784766089902
19.333333,-0.03906130794348317
19.34,-0.05468583112087644
19.346667,-0.0703103542982697
19.353333,-0.07812261588696634
19.36,-0.06249809270957307
19.366667,0.15624523177393268
19.373333,0.7031340596295279
19.38,-0.8046324269889225
19.386667,-0.6483871952149898
19.393333,-0.6483871952149898
19.4,-0.9765021819402484
19.406667,0.3984558576703592
19.413333,-0.015594006530562423
19.42,-0.1406207085965394
19.426667,-0.1406207085965394
19.433333,-0.13280844700784278
19.44,-0.11718392383044951
19.446667,-0.10937166224175288
19.453333,-0.10937166224175288
19.46,-0.06249809270957307
19.466667,0.0
19.473333,0.031249046354786536
19.48,0.03127956300161738
19.486667,0.03909182459031402
19.493333,0.04690408617901065
19.5,0.054716347767707285
19.506667,0.06252860935640392
19.513333,0.07034087094510055
19.52,0.08596539412249382
19.526667,0.09377765571119046
19.533333,0.10158991729988709
19.54,0.11721444047728036
19.546667,0.13283896365467363
19.553333,0.15627574842076353
19.56,0.17971253318685343
19.566667,0.20314931795294333
19.573333,0.22658610271903323
19.58,0.25002288748512314
19.586667,0.27345967225121304
19.593333,0.29689645701730294
19.6,0.3359577649607861
19.606667,0.3750190729042693
19.613333,0.3984558576703592
19.62,0.4218926424364491
19.626667,0.43751716561384235
19.633333,0.445329427202539
19.64,0.43751716561384235
19.646667,0.4218926424364491
19.653333,0.39064359608166255
19.66,0.3515822881381794
19.666667,0.29689645701730294
19.673333,0.23439836430772987
19.68,0.1719002715981568
19.686667,0.10940217888858372
19.693333,0.054716347767707285
19.7,0.007842778235527481
19.706667,-0.023406268119259055
19.713333,-0.06249809270957307
19.72,-0.07812261588696634
19.726667,-0.09374713906435961
19.733333,-0.09374713906435961
19.74,-0.09374713906435961
19.746667,-0.10155940065305624
19.753333,-0.10155940065305624
19.76,-0.10937166224175288
19.766667,-0.10155940065305624
19.773333,-0.10155940065305624
19.78,-0.10155940065305624
19.786667,-0.09374713906435961
19.793333,-0.09374713906435961
19.8,-0.08593487747566297
19.806667,-0.0703103542982697
19.813333,-0.06249809270957307
19.82,-0.05468583112087644
19.826667,-0.05468583112087644
19.833333,-0.05468583112087644
19.84,-0.05468583112087644
19.846667,-0.05468583112087644
19.853333,-0.046873569532179804
19.86,-0.03906130794348317
19.866667,-0.031249046354786536
19.873333,-0.023436784766089902
19.88,-0.007812261588696634
19.886667,0.007812261588696634
19.893333,0.015655039824224115
19.9,0.02346730141292075
19.906667,0.015655039824224115
19.913333,0.007842778235527481
19.92,3.0516646830846227e-05
19.926667,0.0
19.933333,0.0
19.94,0.0
19.946667,0.007812261588696634
19.953333,0.007842778235527481
19.96,0.02346730141292075
19.966667,0.03909182459031402
19.973333,0.06252860935640392
19.98,0.07034087094510055
19.986667,0.08596539412249382
19.993333,0.08596539412249382
20.0,0.07815313253379719
20.006667,0.07034087094510055
20.013333,0.054716347767707285
20.02,0.04690408617901065
20.026667,0.03127956300161738
20.033333,0.02346730141292075
20.04,0.007842778235527481
20.046667,3.0516646830846227e-05
20.053333,0.0
20.06,0.046873569532179804
20.066667,0.3359577649607861
20.073333,0.914065122524337
20.08,-0.749946595868046
20.086667,-0.749946595868046
20.093333,-0.8436937349324056
20.1,0.6953217980408313
20.106667,0.07815313253379719
20.113333,-0.17965149989319174
20.12,-0.17968201654002258
20.126667,-0.14843297018523605
20.133333,-0.11718392383044951
20.14,-0.11718392383044951
20.146667,-0.10937166224175288
20.153333,-0.09374713906435961
20.16,-0.07812261588696634
20.166667,-0.0703103542982697
20.173333,-0.05468583112087644
20.18,-0.031249046354786536
20.186667,-0.007812261588696634
20.193333,-0.007812261588696634
20.2,-0.015624523177393268
20.206667,-0.015624523177393268
20.213333,-0.023436784766089902
20.22,-0.015624523177393268
20.226667,0.0
20.233333,0.015624523177393268
20.24,0.03127956300161738
20.246667,0.04690408617901065
20.253333,0.07034087094510055
20.26,0.10940217888858372
20.266667,0.1484634868320669
20.273333,0.1953370563642467
20.28,0.23439836430772987
20.286667,0.2656474106625164
20.293333,0.29689645701730294
20.3,0.3281455033720895
20.306667,0.359394549726876
20.313333,0.3828313344929659
20.32,0.3984558576703592
20.326667,0.4062681192590558
20.333333,0.3984558576703592
20.34,0.3828313344929659
20.346667,0.359394549726876
20.353333,0.3281455033720895
20.36,0.2890841954286063
20.366667,0.2422106258964265
20.373333,0.18752479477555006
20.38,0.13283896365467363
20.386667,0.09377765571119046
20.393333,0.06252860935640392
20.4,0.03127956300161738
20.406667,0.007842778235527481
20.413333,-0.023406268119259055
20.42,-0.03906130794348317
20.426667,-0.046873569532179804
20.433333,-0.05468583112087644
20.44,-0.06249809270957307
20.446667,-0.0703103542982697
20.453333,-0.06249809270957307
20.46,-0.05468583112087644
20.466667,-0.031249046354786536
20.473333,-0.007812261588696634
20.48,0.023436784766089902
20.486667,0.04690408617901065
20.493333,0.06252860935640392
20.5,0.07034087094510055
20.506667,0.07034087094510055
20.513333,0.07034087094510055
20.52,0.07034087094510055
20.526667,0.054716347767707285
20.533333,0.03909182459031402
20.54,0.03127956300161738
20.546667,0.02346730141292075
20.553333,0.015655039824224115
20.56,0.015655039824224115
20.566667,0.007842778235527481
20.573333,3.0516646830846227e-05
20.58,-0.007812261588696634
20.586667,-0.007812261588696634
20.593333,-0.015624523177393268
20.6,-0.015624523177393268
20.606667,-0.015624523177393268
20.613333,-0.015624523177393268
20.62,-0.023436784766089902
20.626667,-0.023436784766089902
20.633333,-0.023436784766089902
20.64,-0.023436784766089902
20.646667,-0.023436784766089902
20.653333,-0.031249046354786536
20.66,-0.031249046354786536
20.666667,-0.023436784766089902
20.673333,-0.015624523177393268
20.68,0.0
20.686667,0.015624523177393268
20.693333,0.015655039824224115
20.7,0.015655039824224115
20.706667,0.015655039824224115
20.713333,0.007842778235527481
20.72,-0.007781744941865788
20.726667,-0.031249046354786536
20.733333,-0.046873569532179804
20.74,-0.08593487747566297
20.746667,-0.08593487747566297
20.753333,-0.046873569532179804
20.76,0.2968659403704721
20.766667,0.9453141688791236
20.773333,-0.7108852879245628
20.78,-0.7108852879245628
20.786667,-0.9921267051176417
20.793333,0.41408038084775245
20.8,-0.04684305288534896
20.806667,-0.18749427812871922
20.813333,-0.18749427812871922
20.82,-0.17968201654002258
20.826667,-0.16405749336262931
20.833333,-0.15624523177393268
20.84,-0.13280844700784278
20.846667,-0.09374713906435961
20.853333,-0.0703103542982697
20.86,-0.0703103542982697
20.866667,-0.0703103542982697
20.873333,-0.0703103542982697
20.88,-0.06249809270957307
20.886667,-0.046873569532179804
20.893333,-0.031249046354786536
20.9,-0.007812261588696634
20.906667,0.007812261588696634
20.913333,0.02346730141292075
20.92,0.03127956300161738
20.926667,0.054716347767707285
20.933333,0.07034087094510055
20.94,0.08596539412249382
20.946667,0.10940217888858372
20.953333,0.13283896365467363
20.96,0.1484634868320669
20.966667,0.17971253318685343
20.973333,0.21096157954163997
20.98,0.25783514907381977
20.986667,0.3047087186059996
20.993333,0.3515822881381794
21.0,0.39064359608166255
21.006667,0.4218926424364491
21.013333,0.445329427202539
21.02,0.46095395037993225
21.026667,0.4687662119686289
21.033333,0.4687662119686289
21.04,0.445329427202539
21.046667,0.4218926424364491
21.053333,0.3750190729042693
21.06,0.32033324178339284
21.066667,0.2656474106625164
21.073333,0.20314931795294333
21.08,0.14065122524337026
21.086667,0.07815313253379719
21.093333,0.015655039824224115
21.1,-0.03121852970795569
21.106667,-0.0703103542982697
21.113333,-0.09374713906435961
21.12,-0.10937166224175288
21.126667,-0.11718392383044951
21.133333,-0.12499618541914614
21.14,-0.11718392383044951
21.146667,-0.10937166224175288
21.153333,-0.09374713906435961
21.16,-0.08593487747566297
21.166667,-0.07812261588696634
21.173333,-0.0703103542982697
21.18,-0.0703103542982697
21.186667,-0.06249809270957307
21.193333,-0.05468583112087644
21.2,-0.046873569532179804
21.206667,-0.046873569532179804
21.213333,-0.046873569532179804
21.22,-0.05468583112087644
21.226667,-0.06249809270957307
21.233333,-0.0703103542982697
21.24,-0.0703103542982697
21.246667,-0.07812261588696634
21.253333,-0.07812261588696634
21.26,-0.07812261588696634
21.266667,-0.07812261588696634
21.273333,-0.0703103542982697
21.28,-0.05468583112087644
21.286667,-0.046873569532179804
21.293333,-0.031249046354786536
21.3,-0.031249046354786536
21.306667,-0.023436784766089902
21.313333,-0.023436784766089902
21.32,-0.015624523177393268
21.326667,-0.007812261588696634
21.333333,0.0
21.34,0.007812261588696634
21.346667,0.015655039824224115
21.353333,0.03127956300161738
21.36,0.03909182459031402
21.366667,0.04690408617901065
21.373333,0.04690408617901065
21.38,0.04690408617901065
21.386667,0.03909182459031402
21.393333,0.03127956300161738
21.4,0.015655039824224115
21.406667,3.0516646830846227e-05
21.413333,-0.007812261588696634
21.42,-0.023436784766089902
21.426667,-0.015624523177393268
21.433333,-0.015624523177393268
21.44,0.21874332448350575
21.446667,0.7968811986938875
21.453333,-0.8593182581097989
21.46,-0.8593182581097989
21.466667,-0.8749427812871922
21.473333,0.7890689371051909
21.48,0.2187738411303366
21.486667,-0.07027983765143886
21.493333,-0.12499618541914614
21.5,-0.12499618541914614
21.506667,-0.10937166224175288
21.513333,-0.10155940065305624
21.52,-0.07812261588696634
21.526667,-0.031249046354786536
21.533333,0.023436784766089902
21.54,0.054716347767707285
21.546667,0.06252860935640392
21.553333,0.07034087094510055
21.56,0.07034087094510055
21.566667,0.07034087094510055
21.573333,0.07034087094510055
21.58,0.07034087094510055
21.586667,0.07034087094510055
21.593333,0.07815313253379719
21.6,0.07815313253379719
21.606667,0.07815313253379719
21.613333,0.08596539412249382
21.62,0.10158991729988709
21.626667,0.11721444047728036
21.633333,0.14065122524337026
21.64,0.1719002715981568
21.646667,0.21096157954163997
21.653333,0.25002288748512314
21.66,0.29689645701730294
21.666667,0.34377002654948274
21.673333,0.3828313344929659
21.68,0.4218926424364491
21.686667,0.4531416887912356
21.693333,0.4687662119686289
21.7,0.4765784735573255
21.706667,0.4687662119686289
21.713333,0.4531416887912356
21.72,0.4218926424364491
21.726667,0.3828313344929659
21.733333,0.3281455033720895
21.74,0.27345967225121304
21.746667,0.21096157954163997
21.753333,0.15627574842076353
21.76,0.10158991729988709
21.766667,0.03909182459031402
21.773333,-0.015594006530562423
21.78,-0.05468583112087644
21.786667,-0.08593487747566297
21.793333,-0.10155940065305624
21.8,-0.11718392383044951
21.806667,-0.13280844700784278
21.813333,-0.1406207085965394
21.82,-0.1406207085965394
21.826667,-0.1406207085965394
21.833333,-0.1406207085965394
21.84,-0.1406207085965394
21.846667,-0.1406207085965394
21.853333,-0.13280844700784278
21.86,-0.12499618541914614
21.866667,-0.11718392383044951
21.873333,-0.10155940065305624
21.88,-0.08593487747566297
21.886667,-0.0703103542982697
21.893333,-0.05468583112087644
21.9,-0.046873569532179804
21.906667,-0.03906130794348317
21.913333,-0.031249046354786536
21.92,-0.031249046354786536
21.926667,-0.023436784766089902
21.933333,-0.023436784766089902
21.94,-0.031249046354786536
21.946667,-0.03906130794348317
21.953333,-0.046873569532179804
21.96,-0.05468583112087644
21.966667,-0.05468583112087644
21.973333,-0.05468583112087644
21.98,-0.046873569532179804
21.986667,-0.046873569532179804
21.993333,-0.03906130794348317
22.0,-0.023436784766089902
22.006667,-0.007812261588696634
22.013333,0.007812261588696634
22.02,0.015655039824224115
22.026667,0.02346730141292075
22.033333,0.03127956300161738
22.04,0.04690408617901065
22.046667,0.054716347767707285
22.053333,0.06252860935640392
22.06,0.06252860935640392
22.066667,0.054716347767707285
22.073333,0.03909182459031402
22.08,0.03127956300161738
22.086667,0.015655039824224115
22.093333,3.0516646830846227e-05
22.1,-0.015624523177393268
22.106667,-0.046873569532179804
22.113333,-0.046873569532179804
22.12,0.05468583112087644
22.126667,0.4218926424364491
22.133333,1.0
22.14,-0.6796362415697763
22.146667,-0.6796362415697763
22.153333,-0.8280692117550124
22.16,0.6953217980408313
22.166667,0.16408801000946016
22.173333,-0.07809209924013549
22.18,-0.10937166224175288
22.186667,-0.10937166224175288
22.193333,-0.10155940065305624
22.2,-0.10155940065305624
22.206667,-0.10155940065305624
22.213333,-0.09374713906435961
22.22,-0.08593487747566297
22.226667,-0.08593487747566297
22.233333,-0.08593487747566297
22.24,-0.08593487747566297
22.246667,-0.0703103542982697
22.253333,-0.05468583112087644
22.26,-0.03906130794348317
22.266667,-0.023436784766089902
22.273333,-0.023436784766089902
22.28,-0.015624523177393268
22.286667,-0.015624523177393268
22.293333,0.007812261588696634
22.3,0.02346730141292075
22.306667,0.04690408617901065
22.313333,0.07034087094510055
22.32,0.10158991729988709
22.326667,0.14065122524337026
22.333333,0.17971253318685343
22.34,0.22658610271903323
22.346667,0.27345967225121304
22.353333,0.3125209801946962
22.36,0.3515822881381794
22.366667,0.3828313344929659
22.373333,0.4062681192590558
22.38,0.4218926424364491
22.386667,0.4297049040251457
22.393333,0.4297049040251457
22.4,0.4218926424364491
22.406667,0.3984558576703592
22.413333,0.3750190729042693
22.42,0.3359577649607861
22.426667,0.29689645701730294
22.433333,0.25002288748512314
22.44,0.18752479477555006
22.446667,0.125026702065977
22.453333,0.06252860935640392
22.46,0.007842778235527481
22.466667,-0.03903079129665232
22.473333,-0.08593487747566297
22.48,-0.11718392383044951
22.486667,-0.13280844700784278
22.493333,-0.14843297018523605
22.5,-0.14843297018523605
22.506667,-0.14843297018523605
22.513333,-0.1406207085965394
22.52,-0.12499618541914614
22.526667,-0.10937166224175288
22.533333,-0.09374713906435961
22.54,-0.08593487747566297
22.546667,-0.06249809270957307
22.553333,-0.046873569532179804
22.56,-0.031249046354786536
22.566667,-0.023436784766089902
22.573333,-0.023436784766089902
22.58,-0.023436784766089902
22.586667,-0.031249046354786536
22.593333,-0.03906130794348317
22.6,-0.03906130794348317
22.606667,-0.046873569532179804
22.613333,-0.046873569532179804
22.62,-0.046873569532179804
22.626667,-0.046873569532179804
22.633333,-0.03906130794348317
22.64,-0.023436784766089902
22.646667,-0.015624523177393268
22.653333,-0.007812261588696634
22.66,-0.007812261588696634
22.666667,0.0
22.673333,0.0
22.68,0.0
22.686667,0.007812261588696634
22.693333,0.007842778235527481
22.7,0.015655039824224115
22.706667,0.02346730141292075
22.713333,0.03127956300161738
22.72,0.04690408617901065
22.726667,0.054716347767707285
22.733333,0.06252860935640392
22.74,0.06252860935640392
22.746667,0.06252860935640392
22.753333,0.06252860935640392
22.76,0.054716347767707285
22.766667,0.03909182459031402
22.773333,0.02346730141292075
22.78,0.007842778235527481
22.786667,-0.007781744941865788
22.793333,-0.023436784766089902
22.8,-0.03906130794348317
22.806667,-0.07812261588696634
22.813333,-0.07812261588696634
22.82,0.0
22.826667,0.37498855625743843
22.833333,-0.9686899203515518
22.84,-0.6093258872715066
22.846667,-0.6093258872715066
22.853333,-0.8202569501663157
22.86,0.6171991821538649
22.866667,0.06252860935640392
22.873333,-0.15621471512710183
22.88,-0.15624523177393268
22.886667,-0.12499618541914614
22.893333,-0.09374713906435961
22.9,-0.08593487747566297
22.906667,-0.08593487747566297
22.913333,-0.046873569532179804
22.92,-0.015624523177393268
22.926667,-0.007812261588696634
22.933333,-0.007812261588696634
22.94,-0.007812261588696634
22.946667,0.0
22.953333,0.007812261588696634
22.96,0.015655039824224115
22.966667,0.015655039824224115
22.973333,0.02346730141292075
22.98,0.02346730141292075
22.986667,0.03909182459031402
22.993333,0.054716347767707285
23.0,0.07815313253379719
23.006667,0.10158991729988709
23.013333,0.125026702065977
23.02,0.1484634868320669
23.026667,0.17971253318685343
23.033333,0.2187738411303366
23.04,0.25783514907381977
23.046667,0.29689645701730294
23.053333,0.3359577649607861
23.06,0.3750190729042693
23.066667,0.4062681192590558
23.073333,0.43751716561384235
23.08,0.46095395037993225
23.086667,0.4765784735573255
23.093333,0.4687662119686289
23.1,0.445329427202539
23.106667,0.41408038084775245
23.113333,0.36720681131557265
23.12,0.3125209801946962
23.126667,0.25783514907381977
23.133333,0.20314931795294333
23.14,0.1484634868320669
23.146667,0.09377765571119046
23.153333,0.06252860935640392
23.16,0.03909182459031402
23.166667,0.015655039824224115
23.173333,0.007842778235527481
23.18,3.0516646830846227e-05
23.186667,-0.007812261588696634
23.193333,-0.007812261588696634
23.2,-0.007812261588696634
23.206667,-0.015624523177393268
23.213333,-0.015624523177393268
23.22,-0.015624523177393268
23.226667,-0.007812261588696634
23.233333,-0.007812261588696634
23.24,-0.007812261588696634
23.246667,-0.007812261588696634
23.253333,-0.007812261588696634
23.26,0.0
23.266667,0.007812261588696634
23.273333,0.015655039824224115
23.28,0.02346730141292075
23.286667,0.02346730141292075
23.293333,0.03127956300161738
23.3,0.03127956300161738
23.306667,0.02346730141292075
23.313333,0.015655039824224115
23.32,0.007842778235527481
23.326667,-0.007781744941865788
23.333333,-0.015624523177393268
23.34,-0.031249046354786536
23.346667,-0.03906130794348317
23.353333,-0.05468583112087644
23.36,-0.05468583112087644
23.366667,-0.046873569532179804
23.373333,-0.03906130794348317
23.38,-0.031249046354786536
23.386667,-0.023436784766089902
23.393333,-0.015624523177393268
23.4,-0.007812261588696634
23.406667,-0.007812261588696634
23.413333,-0.007812261588696634
23.42,-0.015624523177393268
23.426667,-0.015624523177393268
23.433333,-0.015624523177393268
23.44,-0.015624523177393268
23.446667,-0.007812261588696634
23.453333,-0.007812261588696634
23.46,0.0
23.466667,0.0
23.473333,-0.007812261588696634
23.48,-0.015624523177393268
23.486667,-0.03906130794348317
23.493333,-0.05468583112087644
23.5,-0.07812261588696634
23.506667,-0.10155940065305624
23.513333,-0.16405749336262931
23.52,-0.16405749336262931
23.526667,-0.046873569532179804
23.533333,0.3906130794348317
23.54,-0.9608776587628551
23.546667,-0.6405749336262931
23.553333,-0.6405749336262931
23.56,-0.9921267051176417
23.566667,0.3359577649607861
23.573333,-0.14059019194970857
23.58,-0.2968659403704721
23.586667,-0.2968659403704721
23.593333,-0.23436784766089902
23.6,-0.14843297018523605
23.606667,-0.11718392383044951
23.613333,-0.11718392383044951
23.62,-0.13280844700784278
23.626667,-0.15624523177393268
23.633333,-0.15624523177393268
23.64,-0.13280844700784278
23.646667,-0.09374713906435961
23.653333,-0.07812261588696634
23.66,-0.06249809270957307
23.666667,-0.046873569532179804
23.673333,-0.023436784766089902
23.68,0.0
23.686667,0.023436784766089902
23.693333,0.03909182459031402
23.7,0.06252860935640392
23.706667,0.09377765571119046
23.713333,0.10940217888858372
23.72,0.13283896365467363
23.726667,0.15627574842076353
23.733333,0.17971253318685343
23.74,0.21096157954163997
23.746667,0.2422106258964265
23.753333,0.28127193383990967
23.76,0.32033324178339284
23.766667,0.36720681131557265
23.773333,0.41408038084775245
23.78,0.4531416887912356
23.786667,0.48439073514602216
23.793333,0.5078275199121121
23.8,0.5078275199121121
23.806667,0.5000152583234154
23.813333,0.4765784735573255
23.82,0.445329427202539
23.826667,0.3984558576703592
23.833333,0.3359577649607861
23.84,0.2656474106625164
23.846667,0.1953370563642467
23.853333,0.13283896365467363
23.86,0.07815313253379719
23.866667,0.03127956300161738
23.873333,-0.007781744941865788
23.88,-0.03906130794348317
23.886667,-0.046873569532179804
23.893333,-0.05468583112087644
23.9,-0.05468583112087644
23.906667,-0.046873569532179804
23.913333,-0.03906130794348317
23.92,-0.031249046354786536
23.926667,-0.023436784766089902
23.933333,-0.015624523177393268
23.94,-0.007812261588696634
23.946667,-0.007812261588696634
23.953333,-0.007812261588696634
23.96,-0.007812261588696634
23.966667,-0.007812261588696634
23.973333,-0.007812261588696634
23.98,-0.007812261588696634
23.986667,-0.015624523177393268
23.993333,-0.023436784766089902
24.0,-0.023436784766089902
24.006667,-0.023436784766089902
24.013333,-0.023436784766089902
24.02,-0.023436784766089902
24.026667,-0.031249046354786536
24.033333,-0.031249046354786536
24.04,-0.031249046354786536
24.046667,-0.023436784766089902
24.053333,-0.015624523177393268
24.06,-0.007812261588696634
24.066667,0.007812261588696634
24.073333,0.015655039824224115
24.08,0.02346730141292075
24.086667,0.02346730141292075
24.093333,0.02346730141292075
24.1,0.02346730141292075
24.106667,0.015655039824224115
24.113333,0.007842778235527481
24.12,3.0516646830846227e-05
24.126667,-0.007812261588696634
24.133333,-0.015624523177393268
24.14,-0.015624523177393268
24.146667,-0.015624523177393268
24.153333,-0.023436784766089902
24.16,-0.03906130794348317
24.166667,-0.046873569532179804
24.173333,-0.05468583112087644
24.18,-0.05468583112087644
24.186667,-0.023436784766089902
24.193333,0.046873569532179804
24.2,0.3515822881381794
24.206667,0.9296896457017303
24.213333,-0.749946595868046
24.22,-0.749946595868046
24.226667,-0.9608776587628551
24.233333,0.5234520430895053
24.24,0.015655039824224115
24.246667,-0.18746376148188837
24.253333,-0.18749427812871922
24.26,-0.14843297018523605
24.266667,-0.10937166224175288
24.273333,-0.10155940065305624
24.28,-0.10155940065305624
24.286667,-0.10937166224175288
24.293333,-0.10937166224175288
24.3,-0.07812261588696634
24.306667,-0.015624523177393268
24.313333,0.015624523177393268
24.32,0.015655039824224115
24.326667,0.007842778235527481
24.333333,0.007842778235527481
24.34,0.007842778235527481
24.346667,0.015655039824224115
24.353333,0.03909182459031402
24.36,0.054716347767707285
24.366667,0.07034087094510055
24.373333,0.09377765571119046
24.38,0.125026702065977
24.386667,0.15627574842076353
24.393333,0.1953370563642467
24.4,0.2422106258964265
24.406667,0.28127193383990967
24.413333,0.3281455033720895
24.42,0.36720681131557265
24.426667,0.41408038084775245
24.433333,0.4531416887912356
24.44,0.4922029967347188
24.446667,0.5234520430895053
24.453333,0.5390765662668986
24.46,0.5390765662668986
24.466667,0.5234520430895053
24.473333,0.5000152583234154
24.48,0.4687662119686289
24.486667,0.4297049040251457
24.493333,0.3750190729042693
24.5,0.3125209801946962
24.506667,0.2422106258964265
24.513333,0.17971253318685343
24.52,0.11721444047728036
24.526667,0.07034087094510055
24.533333,0.02346730141292075
24.54,-0.015594006530562423
24.546667,-0.046873569532179804
24.553333,-0.0703103542982697
24.56,-0.08593487747566297
24.566667,-0.09374713906435961
24.573333,-0.08593487747566297
24.58,-0.08593487747566297
24.586667,-0.08593487747566297
24.593333,-0.07812261588696634
24.6,-0.0703103542982697
24.606667,-0.06249809270957307
24.613333,-0.05468583112087644
24.62,-0.046873569532179804
24.626667,-0.05468583112087644
24.633333,-0.05468583112087644
24.64,-0.05468583112087644
24.646667,-0.05468583112087644
24.653333,-0.05468583112087644
24.66,-0.05468583112087644
24.666667,-0.06249809270957307
24.673333,-0.06249809270957307
24.68,-0.06249809270957307
24.686667,-0.046873569532179804
24.693333,-0.03906130794348317
24.7,-0.023436784766089902
24.706667,-0.015624523177393268
24.713333,-0.007812261588696634
24.72,0.007812261588696634
24.726667,0.015655039824224115
24.733333,0.007842778235527481
24.74,3.0516646830846227e-05
24.746667,0.0
24.753333,0.0
24.76,0.0
24.766667,0.007812261588696634
24.773333,0.007842778235527481
24.78,0.015655039824224115
24.786667,0.015655039824224115
24.793333,0.02346730141292075
24.8,0.02346730141292075
24.806667,0.015655039824224115
24.813333,3.0516646830846227e-05
24.82,-0.015624523177393268
24.826667,-0.023436784766089902
24.833333,-0.023436784766089902
24.84,-0.031249046354786536
24.846667,-0.015624523177393268
24.853333,0.2499923708382923
24.86,0.8671915529921572
24.866667,-0.7655711190454393
24.873333,-0.7655711190454393
24.88,-0.7968201654002258
24.886667,0.8203179834599774
24.893333,0.2187738411303366
24.9,-0.03903079129665232
24.906667,-0.03906130794348317
24.913333,-0.015624523177393268
24.92,0.007812261588696634
24.926667,0.015655039824224115
24.933333,0.02346730141292075
24.94,0.03127956300161738
24.946667,0.03909182459031402
24.953333,0.04690408617901065
24.96,0.03909182459031402
24.966667,0.03127956300161738
24.973333,0.03127956300161738
24.98,0.03127956300161738
24.986667,0.03127956300161738
24.993333,0.03127956300161738
25.0,0.03909182459031402
25.006667,0.03909182459031402
25.013333,0.054716347767707285
25.02,0.07815313253379719
25.026667,0.10158991729988709
25.033333,0.14065122524337026
25.04,0.1719002715981568
25.046667,0.20314931795294333
25.053333,0.23439836430772987
25.06,0.27345967225121304
25.066667,0.3125209801946962
25.073333,0.34377002654948274
25.08,0.36720681131557265
25.086667,0.39064359608166255
25.093333,0.41408038084775245
25.1,0.43751716561384235
25.106667,0.46095395037993225
25.113333,0.4765784735573255
25.12,0.4765784735573255
25.126667,0.4687662119686289
25.133333,0.445329427202539
25.14,0.41408038084775245
25.146667,0.359394549726876
25.153333,0.3047087186059996
25.16,0.2422106258964265
25.166667,0.17971253318685343
25.173333,0.11721444047728036
25.18,0.06252860935640392
25.186667,0.007842778235527481
25.193333,-0.03121852970795569
25.2,-0.06249809270957307
25.206667,-0.07812261588696634
25.213333,-0.09374713906435961
25.22,-0.10937166224175288
25.226667,-0.11718392383044951
25.233333,-0.12499618541914614
25.24,-0.12499618541914614
25.246667,-0.11718392383044951
25.253333,-0.10155940065305624
25.26,-0.09374713906435961
25.266667,-0.09374713906435961
25.273333,-0.09374713906435961
25.28,-0.08593487747566297
25.286667,-0.07812261588696634
25.293333,-0.07812261588696634
25.3,-0.07812261588696634
25.306667,-0.08593487747566297
25.313333,-0.07812261588696634
25.32,-0.07812261588696634
25.326667,-0.0703103542982697
25.333333,-0.0703103542982697
25.34,-0.07812261588696634
25.346667,-0.08593487747566297
25.353333,-0.09374713906435961
25.36,-0.09374713906435961
25.366667,-0.09374713906435961
25.373333,-0.08593487747566297
25.38,-0.07812261588696634
25.386667,-0.0703103542982697
25.393333,-0.05468583112087644
25.4,-0.031249046354786536
25.406667,-0.015624523177393268
25.413333,-0.007812261588696634
25.42,0.007812261588696634
25.426667,0.015655039824224115
25.433333,0.02346730141292075
25.44,0.02346730141292075
25.446667,0.02346730141292075
25.453333,0.02346730141292075
25.46,0.02346730141292075
25.466667,0.02346730141292075
25.473333,0.015655039824224115
25.48,0.007842778235527481
25.486667,-0.007781744941865788
25.493333,-0.015624523177393268
25.5,-0.023436784766089902
25.506667,-0.031249046354786536
25.513333,0.03906130794348317
25.52,0.3359577649607861
25.526667,0.9375019072904269
25.533333,-0.7186975495132595
25.54,-0.7186975495132595
25.546667,-0.7890079038115292
25.553333,0.8203179834599774
25.56,0.2656474106625164
25.566667,-0.03121852970795569
25.573333,-0.08593487747566297
25.58,-0.08593487747566297
25.586667,-0.09374713906435961
25.593333,-0.10155940065305624
25.6,-0.11718392383044951
25.606667,-0.11718392383044951
25.613333,-0.07812261588696634
25.62,-0.023436784766089902
25.626667,-0.007812261588696634
25.633333,-0.007812261588696634
25.64,-0.015624523177393268
25.646667,-0.015624523177393268
25.653333,-0.007812261588696634
25.66,0.007812261588696634
25.666667,0.02346730141292075
25.673333,0.03127956300161738
25.68,0.04690408617901065
25.686667,0.054716347767707285
25.693333,0.07815313253379719
25.7,0.10158991729988709
25.706667,0.11721444047728036
25.713333,0.14065122524337026
25.72,0.1719002715981568
25.726667,0.20314931795294333
25.733333,0.2422106258964265
25.74,0.2890841954286063
25.746667,0.3359577649607861
25.753333,0.3750190729042693
25.76,0.4218926424364491
25.766667,0.46095395037993225
25.773333,0.4922029967347188
25.78,0.5156397815008087
25.786667,0.5234520430895053
25.793333,0.5078275199121121
25.8,0.48439073514602216
25.806667,0.4531416887912356
25.813333,0.41408038084775245
25.82,0.359394549726876
25.826667,0.3047087186059996
25.833333,0.25002288748512314
25.84,0.18752479477555006
25.846667,0.13283896365467363
25.853333,0.07815313253379719
25.86,0.03127956300161738
25.866667,3.0516646830846227e-05
25.873333,-0.023436784766089902
25.88,-0.03906130794348317
25.886667,-0.046873569532179804
25.893333,-0.046873569532179804
25.9,-0.046873569532179804
25.906667,-0.03906130794348317
25.913333,-0.03906130794348317
25.92,-0.03906130794348317
25.926667,-0.046873569532179804
25.933333,-0.046873569532179804
25.94,-0.046873569532179804
25.946667,-0.046873569532179804
25.953333,-0.046873569532179804
25.96,-0.031249046354786536
25.966667,-0.023436784766089902
25.973333,-0.007812261588696634
25.98,0.0
25.986667,0.0
25.993333,-0.007812261588696634
26.0,-0.023436784766089902
26.006667,-0.031249046354786536
26.013333,-0.03906130794348317
26.02,-0.046873569532179804
26.026667,-0.046873569532179804
26.033333,-0.046873569532179804
26.04,-0.03906130794348317
26.046667,-0.023436784766089902
26.053333,-0.007812261588696634
26.06,0.007812261588696634
26.066667,0.015655039824224115
26.073333,0.02346730141292075
26.08,0.015655039824224115
26.086667,0.015655039824224115
26.093333,0.02346730141292075
26.1,0.02346730141292075
26.106667,0.02346730141292075
26.113333,0.02346730141292075
26.12,0.02346730141292075
26.126667,0.02346730141292075
26.133333,0.02346730141292075
26.14,0.015655039824224115
26.146667,0.007842778235527481
26.153333,3.0516646830846227e-05
26.16,-0.015624523177393268
26.166667,-0.031249046354786536
26.173333,-0.12499618541914614
26.18,-0.12499618541914614
26.186667,0.03906130794348317
26.193333,0.5468888278555952
26.2,-0.7733833806341359
26.206667,-0.43745613232018066
26.213333,-0.43745613232018066
26.22,-0.7968201654002258
26.226667,0.5156397815008087
26.233333,0.04690408617901065
26.24,-0.09371662241752876
26.246667,-0.09374713906435961
26.253333,-0.08593487747566297
26.26,-0.09374713906435961
26.266667,-0.13280844700784278
26.273333,-0.17968201654002258
26.28,-0.17968201654002258
26.286667,-0.1406207085965394
26.293333,-0.0703103542982697
26.3,-0.015624523177393268
26.306667,0.007812261588696634
26.313333,0.007842778235527481
26.32,0.007842778235527481
26.326667,0.007842778235527481
26.333333,0.007842778235527481
26.34,0.015655039824224115
26.346667,0.02346730141292075
26.353333,0.03127956300161738
26.36,0.04690408617901065
26.366667,0.07815313253379719
26.373333,0.10940217888858372
26.38,0.1484634868320669
26.386667,0.17971253318685343
26.393333,0.20314931795294333
26.4,0.2422106258964265
26.406667,0.28127193383990967
26.413333,0.3281455033720895
26.42,0.36720681131557265
26.426667,0.4062681192590558
26.433333,0.43751716561384235
26.44,0.4765784735573255
26.446667,0.5078275199121121
26.453333,0.5234520430895053
26.46,0.531264304678202
26.466667,0.5156397815008087
26.473333,0.4922029967347188
26.48,0.445329427202539
26.486667,0.39064359608166255
26.493333,0.3281455033720895
26.5,0.27345967225121304
26.506667,0.21096157954163997
26.513333,0.15627574842076353
26.52,0.10940217888858372
26.526667,0.07034087094510055
26.533333,0.03909182459031402
26.54,0.02346730141292075
26.546667,0.015655039824224115
26.553333,3.0516646830846227e-05
26.56,-0.007812261588696634
26.566667,-0.015624523177393268
26.573333,-0.015624523177393268
26.58,-0.023436784766089902
26.586667,-0.023436784766089902
26.593333,-0.023436784766089902
26.6,-0.023436784766089902
26.606667,-0.015624523177393268
26.613333,-0.007812261588696634
26.62,0.0
26.626667,0.0
26.633333,0.015624523177393268
26.64,0.02346730141292075
26.646667,0.03909182459031402
26.653333,0.04690408617901065
26.66,0.04690408617901065
26.666667,0.03909182459031402
26.673333,0.03909182459031402
26.68,0.03127956300161738
26.686667,0.02346730141292075
26.693333,0.007842778235527481
26.7,3.0516646830846227e-05
26.706667,-0.015624523177393268
26.713333,-0.023436784766089902
26.72,-0.023436784766089902
26.726667,-0.031249046354786536
26.733333,-0.031249046354786536
26.74,-0.031249046354786536
26.746667,-0.031249046354786536
26.753333,-0.023436784766089902
26.76,-0.015624523177393268
26.766667,0.0
26.773333,0.023436784766089902
26.78,0.04690408617901065
26.786667,0.07034087094510055
26.793333,0.07815313253379719
26.8,0.07034087094510055
26.806667,0.06252860935640392
26.813333,0.03909182459031402
26.82,0.02346730141292075
26.826667,3.0516646830846227e-05
26.833333,-0.023436784766089902
26.84,-0.046873569532179804
26.846667,-0.06249809270957307
26.853333,-0.05468583112087644
26.86,-0.015624523177393268
26.866667,0.2968659403704721
26.873333,0.9218773841130337
26.88,-0.7265098111019561
26.886667,-0.7265098111019561
26.893333,-0.8046324269889225
26.9,0.7734444139277976
26.906667,0.1719002715981568
26.913333,-0.08590436082883213
26.92,-0.08593487747566297
26.926667,-0.07812261588696634
26.933333,-0.0703103542982697
26.94,-0.07812261588696634
26.946667,-0.08593487747566297
26.953333,-0.10155940065305624
26.96,-0.10155940065305624
26.966667,-0.06249809270957307
26.973333,-0.031249046354786536
26.98,-0.031249046354786536
26.986667,-0.046873569532179804
26.993333,-0.06249809270957307
27.0,-0.06249809270957307
27.006667,-0.06249809270957307
27.013333,-0.05468583112087644
27.02,-0.03906130794348317
27.026667,-0.031249046354786536
27.033333,-0.031249046354786536
27.04,-0.023436784766089902
27.046667,-0.007812261588696634
27.053333,0.007812261588696634
27.06,0.02346730141292075
27.066667,0.054716347767707285
27.073333,0.09377765571119046
27.08,0.13283896365467363
27.086667,0.17971253318685343
27.093333,0.2187738411303366
27.1,0.25783514907381977
27.106667,0.29689645701730294
27.113333,0.32033324178339284
27.12,0.3281455033720895
27.126667,0.32033324178339284
27.133333,0.3047087186059996
27.14,0.28127193383990967
27.146667,0.25002288748512314
27.153333,0.2187738411303366
27.16,0.18752479477555006
27.166667,0.15627574842076353
27.173333,0.11721444047728036
27.18,0.07815313253379719
27.186667,0.03909182459031402
27.193333,0.007842778235527481
27.2,-0.023406268119259055
27.206667,-0.05468583112087644
27.213333,-0.07812261588696634
27.22,-0.10155940065305624
27.226667,-0.11718392383044951
27.233333,-0.12499618541914614
27.24,-0.13280844700784278
27.246667,-0.12499618541914614
27.253333,-0.12499618541914614
27.26,-0.12499618541914614
27.266667,-0.12499618541914614
27.273333,-0.12499618541914614
27.28,-0.12499618541914614
27.286667,-0.12499618541914614
27.293333,-0.12499618541914614
27.3,-0.13280844700784278
27.306667,-0.13280844700784278
27.313333,-0.13280844700784278
27.32,-0.13280844700784278
27.326667,-0.13280844700784278
27.333333,-0.13280844700784278
27.34,-0.13280844700784278
27.346667,-0.13280844700784278
27.353333,-0.12499618541914614
27.36,-0.12499618541914614
27.366667,-0.12499618541914614
27.373333,-0.11718392383044951
27.38,-0.10155940065305624
27.386667,-0.09374713906435961
27.393333,-0.07812261588696634
27.4,-0.0703103542982697
27.406667,-0.06249809270957307
27.413333,-0.05468583112087644
27.42,-0.046873569532179804
27.426667,-0.031249046354786536
27.433333,-0.015624523177393268
27.44,0.007812261588696634
27.446667,0.015655039824224115
27.453333,0.02346730141292075
27.46,0.03127956300161738
27.466667,0.03909182459031402
27.473333,0.03909182459031402
27.48,0.03127956300161738
27.486667,0.007842778235527481
27.493333,-0.007781744941865788
27.5,-0.023436784766089902
27.506667,-0.031249046354786536
27.513333,-0.046873569532179804
27.52,-0.046873569532179804
27.526667,0.14843297018523605
27.533333,0.6953217980408313
27.54,-0.8983795660532821
27.546667,-0.8436937349324056
27.553333,-0.8436937349324056
27.56,0.8046934602825841
27.566667,0.16408801000946016
27.573333,-0.15621471512710183
27.58,-0.20311880130611248
27.586667,-0.20311880130611248
27.593333,-0.19530653971741585
27.6,-0.19530653971741585
27.606667,-0.19530653971741585
27.613333,-0.19530653971741585
27.62,-0.17186975495132595
27.626667,-0.13280844700784278
27.633333,-0.09374713906435961
27.64,-0.09374713906435961
27.646667,-0.09374713906435961
27.653333,-0.09374713906435961
27.66,-0.07812261588696634
27.666667,-0.05468583112087644
27.673333,-0.046873569532179804
27.68,-0.03906130794348317
27.686667,-0.046873569532179804
27.693333,-0.046873569532179804
27.7,-0.046873569532179804
27.706667,-0.03906130794348317
27.713333,-0.03906130794348317
27.72,-0.031249046354786536
27.726667,-0.015624523177393268
27.733333,0.0
27.74,0.031249046354786536
27.746667,0.07034087094510055
27.753333,0.11721444047728036
27.76,0.15627574842076353
27.766667,0.1953370563642467
27.773333,0.23439836430772987
27.78,0.2656474106625164
27.786667,0.28127193383990967
27.793333,0.2890841954286063
27.8,0.27345967225121304
27.806667,0.2422106258964265
27.813333,0.21096157954163997
27.82,0.1719002715981568
27.826667,0.13283896365467363
27.833333,0.08596539412249382
27.84,0.03127956300161738
27.846667,-0.015594006530562423
27.853333,-0.046873569532179804
27.86,-0.0703103542982697
27.866667,-0.08593487747566297
27.873333,-0.09374713906435961
27.88,-0.10155940065305624
27.886667,-0.10937166224175288
27.893333,-0.10155940065305624
27.9,-0.09374713906435961
27.906667,-0.07812261588696634
27.913333,-0.07812261588696634
27.92,-0.0703103542982697
27.926667,-0.06249809270957307
27.933333,-0.06249809270957307
27.94,-0.05468583112087644
27.946667,-0.046873569532179804
27.953333,-0.03906130794348317
27.96,-0.023436784766089902
27.966667,-0.007812261588696634
27.973333,0.007812261588696634
27.98,0.015655039824224115
27.986667,0.02346730141292075
27.993333,0.02346730141292075
28.0,0.02346730141292075
28.006667,0.015655039824224115
28.013333,0.007842778235527481
28.02,3.0516646830846227e-05
28.026667,-0.007812261588696634
28.033333,-0.015624523177393268
28.04,-0.023436784766089902
28.046667,-0.023436784766089902
28.053333,-0.015624523177393268
28.06,0.0
28.066667,0.007812261588696634
28.073333,0.015655039824224115
28.08,0.02346730141292075
28.086667,0.03127956300161738
28.093333,0.03909182459031402
28.1,0.04690408617901065
28.106667,0.04690408617901065
28.113333,0.03909182459031402
28.12,0.03127956300161738
28.126667,0.02346730141292075
