t_sec,ecg
0.0,0.060455322265625
0.006667,0.507568359375
0.013333,0.008636474609375
0.02,0.109130859375
0.026667,0.007965087890625
0.033333,0.007568359375
0.04,0.007568359375
0.046667,0.304443359375
0.053333,0.085784912109375
0.06,0.00836181640625
0.066667,0.320068359375
0.073333,-0.139801025390625
0.08,-0.148468017578125
0.086667,-0.164093017578125
0.093333,-0.171905517578125
0.1,-0.187530517578125
0.106667,-0.187530517578125
0.113333,-0.171905517578125
0.12,-0.140655517578125
0.126667,-0.109405517578125
0.133333,-0.078155517578125
0.14,-0.070343017578125
0.146667,-0.085968017578125
0.153333,-0.101593017578125
0.16,-0.242218017578125
0.166667,-0.250030517578125
0.173333,-0.257843017578125
0.18,-0.257843017578125
0.186667,-0.015655517578125
0.193333,0.687469482421875
0.2,-0.6640625
0.206667,-0.4921875
0.213333,-0.4921875
0.22,-0.921875
0.226667,0.2578125
0.233333,-0.4765625
0.24,-0.906280517578125
0.246667,0.992156982421875
0.253333,0.992156982421875
0.26,-0.773468017578125
0.266667,-0.343780517578125
0.273333,-0.117218017578125
0.28,-0.054718017578125
0.286667,-0.054718017578125
0.293333,-0.054718017578125
0.3,-0.039093017578125
0.306667,-0.031280517578125
0.313333,-0.031280517578125
0.32,-0.054718017578125
0.326667,-0.093780517578125
0.333333,-0.132843017578125
0.34,-0.164093017578125
0.346667,-0.187530517578125
0.353333,-0.210968017578125
0.36,-0.226593017578125
0.366667,-0.242218017578125
0.373333,-0.234405517578125
0.38,-0.203155517578125
0.386667,-0.171905517578125
0.393333,-0.132843017578125
0.4,-0.101593017578125
0.406667,-0.093780517578125
0.413333,-0.078155517578125
0.42,-0.070343017578125
0.426667,-0.062530517578125
0.433333,-0.046905517578125
0.44,-3.0517578125e-05
0.446667,0.046844482421875
0.453333,0.09375
0.46,0.1328125
0.466667,0.1484375
0.473333,0.140625
0.48,0.1328125
0.486667,0.1015625
0.493333,0.0546875
0.5,0.0
0.506667,-0.070343017578125
0.513333,-0.140655517578125
0.52,-0.187530517578125
0.526667,-0.195343017578125
0.533333,-0.179718017578125
0.54,-0.132843017578125
0.546667,-0.093780517578125
0.553333,-0.070343017578125
0.56,-0.054718017578125
0.566667,-0.039093017578125
0.573333,-0.031280517578125
0.58,-0.031280517578125
0.586667,-0.062530517578125
0.593333,-0.101593017578125
0.6,-0.117218017578125
0.606667,-0.101593017578125
0.613333,-0.046905517578125
0.62,0.046844482421875
0.626667,0.15625
0.633333,0.28125
0.64,0.40625
0.646667,0.5078125
0.653333,0.5703125
0.66,0.6015625
0.666667,0.609375
0.673333,0.609375
0.68,0.5859375
0.686667,0.546875
0.693333,0.5078125
0.7,0.46875
0.706667,0.4609375
0.713333,0.484375
0.72,0.5234375
0.726667,0.5703125
0.733333,0.6171875
0.74,0.6484375
0.746667,0.671875
0.753333,0.671875
0.76,0.65625
0.766667,0.625
0.773333,0.5703125
0.78,0.515625
0.786667,0.4375
0.793333,0.359375
0.8,0.3046875
0.806667,0.265625
0.813333,0.25
0.82,0.25
0.826667,0.25
0.833333,0.234375
0.84,0.2109375
0.846667,0.1953125
0.853333,0.1796875
0.86,0.15625
0.866667,0.1015625
0.873333,0.0234375
0.88,-0.046875
0.886667,-0.078155517578125
0.893333,-0.054718017578125
0.9,-0.031280517578125
0.906667,-3.0517578125e-05
0.913333,0.023406982421875
0.92,-0.171875
0.926667,-0.171905517578125
0.933333,0.031219482421875
0.94,0.703125
0.946667,-0.828125
0.953333,-0.828125
0.96,0.953125
0.966667,0.296875
0.973333,-0.1484375
0.98,-0.148468017578125
0.986667,-0.093780517578125
0.993333,0.101531982421875
1.0,0.2578125
1.006667,0.2578125
1.013333,0.140625
1.02,-0.0234375
1.026667,-0.062530517578125
1.033333,-0.070343017578125
1.04,-0.085968017578125
1.046667,-0.117218017578125
1.053333,-0.117218017578125
1.06,-0.093780517578125
1.066667,-0.015655517578125
1.073333,0.070281982421875
1.08,0.125
1.086667,0.15625
1.093333,0.1484375
1.1,0.15625
1.106667,0.171875
1.113333,0.171875
1.12,0.140625
1.126667,0.09375
1.133333,0.046875
1.14,0.03125
1.146667,0.0625
1.153333,0.125
1.16,0.1875
1.166667,0.234375
1.173333,0.2578125
1.18,0.28125
1.186667,0.296875
1.193333,0.3046875
1.2,0.28125
1.206667,0.2421875
1.213333,0.1953125
1.22,0.1640625
1.226667,0.1484375
1.233333,0.1328125
1.24,0.125
1.246667,0.109375
1.253333,0.1015625
1.26,0.0859375
1.266667,0.0703125
1.273333,0.0625
1.28,0.0546875
1.286667,0.0390625
1.293333,0.015625
1.3,-0.0078125
1.306667,-0.031280517578125
1.313333,-0.031280517578125
1.32,-0.031280517578125
1.326667,-0.023468017578125
1.333333,-0.023468017578125
1.34,-0.023468017578125
1.346667,-0.007843017578125
1.353333,0.007781982421875
1.36,0.015625
1.366667,0.0078125
1.373333,-0.0234375
1.38,-0.078155517578125
1.386667,-0.132843017578125
1.393333,-0.179718017578125
1.4,-0.210968017578125
1.406667,-0.234405517578125
1.413333,-0.242218017578125
1.42,-0.234405517578125
1.426667,-0.179718017578125
1.433333,-0.093780517578125
1.44,-0.007843017578125
1.446667,0.078094482421875
1.453333,0.125
1.46,0.1484375
1.466667,0.15625
1.473333,0.15625
1.48,0.1484375
1.486667,0.1171875
1.493333,0.0859375
1.5,0.0625
1.506667,0.046875
1.513333,0.03125
1.52,0.015625
1.526667,0.0
1.533333,-0.015655517578125
1.54,-0.015655517578125
1.546667,-0.015655517578125
1.553333,0.007781982421875
1.56,0.0390625
1.566667,0.078125
1.573333,0.1171875
1.58,0.1328125
1.586667,0.125
1.593333,0.078125
1.6,0.015625
1.606667,-0.0546875
1.613333,-0.117218017578125
1.62,-0.187530517578125
1.626667,-0.234405517578125
1.633333,-0.257843017578125
1.64,-0.242218017578125
1.646667,0.007781982421875
1.653333,0.0
1.66,-3.0517578125e-05
1.666667,0.093719482421875
1.673333,0.671875
1.68,-0.8359375
1.686667,-0.8359375
1.693333,1.0
1.7,0.2890625
1.706667,-0.6640625
1.713333,0.929656982421875
1.72,0.929656982421875
1.726667,-0.937530517578125
1.733333,-0.640655517578125
1.74,-0.304718017578125
1.746667,0.015594482421875
1.753333,0.1640625
1.76,0.1640625
1.766667,0.0625
1.773333,-0.1640625
1.78,-0.304718017578125
1.786667,-0.304718017578125
1.793333,-0.296905517578125
1.8,-0.273468017578125
1.806667,-0.234405517578125
1.813333,-0.171905517578125
1.82,-0.109405517578125
1.826667,-0.070343017578125
1.833333,-0.015655517578125
1.84,0.031219482421875
1.846667,0.0625
1.853333,0.078125
1.86,0.0859375
1.866667,0.078125
1.873333,0.0703125
1.88,0.078125
1.886667,0.09375
1.893333,0.125
1.9,0.1640625
1.906667,0.2109375
1.913333,0.25
1.92,0.28125
1.926667,0.28125
1.933333,0.28125
1.94,0.28125
1.946667,0.28125
1.953333,0.2578125
1.96,0.2109375
1.966667,0.171875
1.973333,0.140625
1.98,0.125
1.986667,0.1015625
1.993333,0.078125
2.0,0.03125
2.006667,-0.0078125
2.013333,-0.023468017578125
2.02,-0.039093017578125
2.026667,-0.054718017578125
2.033333,-0.070343017578125
2.04,-0.101593017578125
2.046667,-0.125030517578125
2.053333,-0.140655517578125
2.06,-0.148468017578125
2.066667,-0.164093017578125
2.073333,-0.187530517578125
2.08,-0.210968017578125
2.086667,-0.226593017578125
2.093333,-0.234405517578125
2.1,-0.234405517578125
2.106667,-0.250030517578125
2.113333,-0.273468017578125
2.12,-0.281280517578125
2.126667,-0.296905517578125
2.133333,-0.304718017578125
2.14,-0.320343017578125
2.146667,-0.343780517578125
2.153333,-0.359405517578125
2.16,-0.351593017578125
2.166667,-0.335968017578125
2.173333,-0.312530517578125
2.18,-0.304718017578125
2.186667,-0.320343017578125
2.193333,-0.343780517578125
2.2,-0.367218017578125
2.206667,-0.382843017578125
2.213333,-0.382843017578125
2.22,-0.390655517578125
2.226667,-0.398468017578125
2.233333,-0.398468017578125
2.24,-0.375030517578125
2.246667,-0.320343017578125
2.253333,-0.242218017578125
2.26,-0.171905517578125
2.266667,-0.132843017578125
2.273333,-0.109405517578125
2.28,-0.085968017578125
2.286667,-0.054718017578125
2.293333,-0.015655517578125
2.3,0.007781982421875
2.306667,0.0078125
2.313333,0.0078125
2.32,0.0234375
2.326667,0.03125
2.333333,0.046875
2.34,0.046875
2.346667,0.0390625
2.353333,0.0234375
2.36,0.0078125
2.366667,-0.0390625
2.373333,-0.039093017578125
2.38,-0.023468017578125
2.386667,0.335906982421875
2.393333,-0.9296875
2.4,-0.5390625
2.406667,-0.5390625
2.413333,-0.9453125
2.42,0.2421875
2.426667,-0.3984375
2.433333,-0.632843017578125
2.44,-0.632843017578125
2.446667,-0.609405517578125
2.453333,-0.570343017578125
2.46,-0.484405517578125
2.466667,-0.312530517578125
2.473333,-0.117218017578125
2.48,-0.015655517578125
2.486667,-0.015655517578125
2.493333,-0.062530517578125
2.5,-0.117218017578125
2.506667,-0.117218017578125
2.513333,-0.109405517578125
2.52,-0.070343017578125
2.526667,-0.023468017578125
2.533333,0.015594482421875
2.54,0.03125
2.546667,0.0390625
2.553333,0.0625
2.56,0.09375
2.566667,0.1328125
2.573333,0.1484375
2.58,0.1484375
2.586667,0.15625
2.593333,0.15625
2.6,0.1796875
2.606667,0.21875
2.613333,0.25
2.62,0.28125
2.626667,0.3046875
2.633333,0.3203125
2.64,0.3359375
2.646667,0.34375
2.653333,0.3359375
2.66,0.296875
2.666667,0.234375
2.673333,0.1640625
2.68,0.09375
2.686667,0.0390625
2.693333,-0.015625
2.7,-0.093780517578125
2.706667,-0.179718017578125
2.713333,-0.257843017578125
2.72,-0.304718017578125
2.726667,-0.351593017578125
2.733333,-0.382843017578125
2.74,-0.414093017578125
2.746667,-0.445343017578125
2.753333,-0.445343017578125
2.76,-0.406280517578125
2.766667,-0.351593017578125
2.773333,-0.304718017578125
2.78,-0.257843017578125
2.786667,-0.226593017578125
2.793333,-0.203155517578125
2.8,-0.171905517578125
2.806667,-0.156280517578125
2.813333,-0.156280517578125
2.82,-0.156280517578125
2.826667,-0.148468017578125
2.833333,-0.140655517578125
2.84,-0.125030517578125
2.846667,-0.101593017578125
2.853333,-0.078155517578125
2.86,-0.046905517578125
2.866667,-0.015655517578125
2.873333,0.007781982421875
2.88,0.0234375
2.886667,0.03125
2.893333,0.0390625
2.9,0.0390625
2.906667,0.0234375
2.913333,0.0078125
2.92,0.0
2.926667,-3.0517578125e-05
2.933333,0.007781982421875
2.94,0.015625
2.946667,0.03125
2.953333,0.0546875
2.96,0.0703125
2.966667,0.078125
2.973333,0.078125
2.98,0.078125
2.986667,0.078125
2.993333,0.1015625
3.0,0.140625
3.006667,0.1796875
3.013333,0.21875
3.02,0.234375
3.026667,0.2421875
3.033333,0.234375
3.04,0.21875
3.046667,0.1796875
3.053333,0.1171875
3.06,0.046875
3.066667,-0.0234375
3.073333,-0.062530517578125
3.08,-0.148468017578125
3.086667,-0.156280517578125
3.093333,-0.164093017578125
3.1,-0.132843017578125
3.106667,0.226531982421875
3.113333,-0.9765625
3.12,-0.53125
3.126667,-0.53125
3.133333,-0.9453125
3.14,0.1328125
3.146667,-0.6484375
3.153333,-0.914093017578125
3.16,-0.914093017578125
3.166667,-0.734405517578125
3.173333,-0.406280517578125
3.18,-0.156280517578125
3.186667,-0.007843017578125
3.193333,0.046844482421875
3.2,0.046875
3.206667,0.0390625
3.213333,0.0390625
3.22,0.0625
3.226667,0.109375
3.233333,0.15625
3.24,0.1796875
3.246667,0.1875
3.253333,0.1875
3.26,0.1875
3.266667,0.21875
3.273333,0.25
3.28,0.2734375
3.286667,0.28125
3.293333,0.296875
3.3,0.3203125
3.306667,0.3671875
3.313333,0.4296875
3.32,0.484375
3.326667,0.515625
3.333333,0.53125
3.34,0.5546875
3.346667,0.5703125
3.353333,0.5859375
3.36,0.578125
3.366667,0.546875
3.373333,0.4921875
3.38,0.4453125
3.386667,0.40625
3.393333,0.3671875
3.4,0.3203125
3.406667,0.265625
3.413333,0.1875
3.42,0.0859375
3.426667,0.0078125
3.433333,-0.0703125
3.44,-0.148468017578125
3.446667,-0.226593017578125
3.453333,-0.296905517578125
3.46,-0.343780517578125
3.466667,-0.359405517578125
3.473333,-0.335968017578125
3.48,-0.312530517578125
3.486667,-0.289093017578125
3.493333,-0.273468017578125
3.5,-0.250030517578125
3.506667,-0.234405517578125
3.513333,-0.234405517578125
3.52,-0.257843017578125
3.526667,-0.281280517578125
3.533333,-0.296905517578125
3.54,-0.296905517578125
3.546667,-0.273468017578125
3.553333,-0.250030517578125
3.56,-0.226593017578125
3.566667,-0.210968017578125
3.573333,-0.195343017578125
3.58,-0.195343017578125
3.586667,-0.203155517578125
3.593333,-0.226593017578125
3.6,-0.265655517578125
3.606667,-0.304718017578125
3.613333,-0.343780517578125
3.62,-0.375030517578125
3.626667,-0.367218017578125
3.633333,-0.335968017578125
3.64,-0.304718017578125
3.646667,-0.281280517578125
3.653333,-0.265655517578125
3.66,-0.257843017578125
3.666667,-0.234405517578125
3.673333,-0.195343017578125
3.68,-0.156280517578125
3.686667,-0.125030517578125
3.693333,-0.093780517578125
3.7,-0.046905517578125
3.706667,-3.0517578125e-05
3.713333,0.046844482421875
3.72,0.0703125
3.726667,0.078125
3.733333,0.0625
3.74,0.0546875
3.746667,0.046875
3.753333,0.0234375
3.76,0.0
3.766667,-0.015655517578125
3.773333,-0.023468017578125
3.78,-0.031280517578125
3.786667,-0.023468017578125
3.793333,-0.015655517578125
3.8,-3.0517578125e-05
3.806667,0.023406982421875
3.813333,0.0546875
3.82,0.078125
3.826667,0.1015625
3.833333,0.375
3.84,0.9453125
3.846667,-0.78125
3.853333,-0.78125
3.86,0.75
3.866667,-0.1875
3.873333,-0.656280517578125
3.88,-0.671905517578125
3.886667,-0.671905517578125
3.893333,-0.507843017578125
3.9,-0.265655517578125
3.906667,-0.132843017578125
3.913333,-0.039093017578125
3.92,0.046844482421875
3.926667,0.0859375
3.933333,0.1015625
3.94,0.109375
3.946667,0.109375
3.953333,0.0859375
3.96,0.0625
3.966667,0.0625
3.973333,0.09375
3.98,0.140625
3.986667,0.1875
3.993333,0.2109375
4.0,0.2265625
4.006667,0.2421875
4.013333,0.25
4.02,0.2890625
4.026667,0.328125
4.033333,0.3671875
4.04,0.4140625
4.046667,0.46875
4.053333,0.5234375
4.06,0.5859375
4.066667,0.640625
4.073333,0.6953125
4.08,0.7265625
4.086667,0.734375
4.093333,0.703125
4.1,0.6640625
4.106667,0.625
4.113333,0.5859375
4.12,0.546875
4.126667,0.484375
4.133333,0.3984375
4.14,0.3046875
4.146667,0.234375
4.153333,0.15625
4.16,0.0859375
4.166667,0.0078125
4.173333,-0.078125
4.18,-0.140655517578125
4.186667,-0.171905517578125
4.193333,-0.179718017578125
4.2,-0.164093017578125
4.206667,-0.148468017578125
4.213333,-0.125030517578125
4.22,-0.101593017578125
4.226667,-0.078155517578125
4.233333,-0.054718017578125
4.24,-0.039093017578125
4.246667,-0.023468017578125
4.253333,-0.031280517578125
4.26,-0.046905517578125
4.266667,-0.062530517578125
4.273333,-0.078155517578125
4.28,-0.078155517578125
4.286667,-0.070343017578125
4.293333,-0.062530517578125
4.3,-0.046905517578125
4.306667,-0.023468017578125
4.313333,-0.007843017578125
4.32,-3.0517578125e-05
4.326667,-0.007843017578125
4.333333,-0.015655517578125
4.34,-0.039093017578125
4.346667,-0.054718017578125
4.353333,-0.062530517578125
4.36,-0.062530517578125
4.366667,-0.054718017578125
4.373333,-0.046905517578125
4.38,-0.039093017578125
4.386667,-0.039093017578125
4.393333,-0.031280517578125
4.4,-0.031280517578125
4.406667,-0.046905517578125
4.413333,-0.062530517578125
4.42,-0.070343017578125
4.426667,-0.062530517578125
4.433333,-0.039093017578125
4.44,0.007781982421875
4.446667,0.046875
4.453333,0.0859375
4.46,0.109375
4.466667,0.1328125
4.473333,0.140625
4.48,0.1171875
4.486667,0.0859375
4.493333,0.046875
4.5,0.0078125
4.506667,-0.015625
4.513333,-0.031280517578125
4.52,-0.046905517578125
4.526667,-0.070343017578125
4.533333,-0.242218017578125
4.54,-0.242218017578125
4.546667,-0.062530517578125
4.553333,0.445281982421875
4.56,1.0
4.566667,-0.7734375
4.573333,-0.7734375
4.58,0.734375
4.586667,-0.25
4.593333,-0.765655517578125
4.6,-0.781280517578125
4.606667,-0.781280517578125
4.613333,-0.585968017578125
4.62,-0.335968017578125
4.626667,-0.250030517578125
4.633333,-0.242218017578125
4.64,-0.234405517578125
4.646667,-0.187530517578125
4.653333,-0.109405517578125
4.66,-0.031280517578125
4.666667,0.054656982421875
4.673333,0.09375
4.68,0.1171875
4.686667,0.1328125
4.693333,0.140625
4.7,0.140625
4.706667,0.15625
4.713333,0.1796875
4.72,0.2265625
4.726667,0.265625
4.733333,0.296875
4.74,0.3359375
4.746667,0.3828125
4.753333,0.4375
4.76,0.484375
4.766667,0.5234375
4.773333,0.546875
4.78,0.578125
4.786667,0.609375
4.793333,0.6484375
4.8,0.6875
4.806667,0.71875
4.813333,0.7421875
4.82,0.734375
4.826667,0.703125
4.833333,0.65625
4.84,0.59375
4.846667,0.5078125
4.853333,0.3984375
4.86,0.296875
4.866667,0.1875
4.873333,0.109375
4.88,0.046875
4.886667,0.0
4.893333,-0.023468017578125
4.9,-0.046905517578125
4.906667,-0.062530517578125
4.913333,-0.070343017578125
4.92,-0.078155517578125
4.926667,-0.070343017578125
4.933333,-0.062530517578125
4.94,-0.046905517578125
4.946667,-0.031280517578125
4.953333,-0.007843017578125
4.96,0.015594482421875
4.966667,0.0390625
4.973333,0.0546875
4.98,0.0546875
4.986667,0.046875
4.993333,0.0390625
5.0,0.03125
5.006667,0.0078125
5.013333,-0.015625
5.02,-0.039093017578125
5.026667,-0.054718017578125
5.033333,-0.054718017578125
5.04,-0.054718017578125
5.046667,-0.054718017578125
5.053333,-0.054718017578125
5.06,-0.046905517578125
5.066667,-0.046905517578125
5.073333,-0.046905517578125
5.08,-0.054718017578125
5.086667,-0.046905517578125
5.093333,-0.039093017578125
5.1,-0.015655517578125
5.106667,0.015594482421875
5.113333,0.0390625
5.12,0.0625
5.126667,0.0859375
5.133333,0.109375
5.14,0.125
5.146667,0.1328125
5.153333,0.1328125
5.16,0.1171875
5.166667,0.09375
5.173333,0.0703125
5.18,0.0390625
5.186667,0.0078125
5.193333,-0.03125
5.2,-0.078155517578125
5.206667,-0.117218017578125
5.213333,-0.148468017578125
5.22,-0.164093017578125
5.226667,-0.148468017578125
5.233333,-0.148468017578125
5.24,-0.117218017578125
5.246667,0.382781982421875
5.253333,-0.875
5.26,-0.6015625
5.266667,-0.6015625
5.273333,0.859375
5.28,-0.1875
5.286667,-0.906280517578125
5.293333,0.867156982421875
5.3,0.867156982421875
5.306667,-0.984405517578125
5.313333,-0.710968017578125
5.32,-0.453155517578125
5.326667,-0.226593017578125
5.333333,-0.062530517578125
5.34,0.015594482421875
5.346667,0.03125
5.353333,0.03125
5.36,0.015625
5.366667,0.0078125
5.373333,0.0
5.38,-3.0517578125e-05
5.386667,0.015594482421875
5.393333,0.0390625
5.4,0.0625
5.406667,0.09375
5.413333,0.125
5.42,0.15625
5.426667,0.171875
5.433333,0.1953125
5.44,0.21875
5.446667,0.2421875
5.453333,0.2890625
5.46,0.3359375
5.466667,0.3828125
5.473333,0.4375
5.48,0.5
5.486667,0.5703125
5.493333,0.6328125
5.5,0.6796875
5.506667,0.6875
5.513333,0.6796875
5.52,0.6640625
5.526667,0.6328125
5.533333,0.578125
5.54,0.5078125
5.546667,0.4296875
5.553333,0.34375
5.56,0.25
5.566667,0.1640625
5.573333,0.0859375
5.58,0.0234375
5.586667,-0.03125
5.593333,-0.062530517578125
5.6,-0.078155517578125
5.606667,-0.085968017578125
5.613333,-0.085968017578125
5.62,-0.078155517578125
5.626667,-0.070343017578125
5.633333,-0.046905517578125
5.64,-0.031280517578125
5.646667,-0.015655517578125
5.653333,-0.007843017578125
5.66,-0.007843017578125
5.666667,-3.0517578125e-05
5.673333,-3.0517578125e-05
5.68,-3.0517578125e-05
5.686667,-3.0517578125e-05
5.693333,-0.007843017578125
5.7,-0.015655517578125
5.706667,-0.023468017578125
5.713333,-0.023468017578125
5.72,-0.031280517578125
5.726667,-0.031280517578125
5.733333,-0.023468017578125
5.74,-0.007843017578125
5.746667,0.015594482421875
5.753333,0.0390625
5.76,0.0546875
5.766667,0.078125
5.773333,0.1171875
5.78,0.1640625
5.786667,0.203125
5.793333,0.234375
5.8,0.265625
5.806667,0.3125
5.813333,0.3515625
5.82,0.390625
5.826667,0.390625
5.833333,0.359375
5.84,0.3046875
5.846667,0.25
5.853333,0.1953125
5.86,0.1328125
5.866667,0.0703125
5.873333,0.015625
5.88,-0.015625
5.886667,-0.039093017578125
5.893333,-0.132843017578125
5.9,-0.132843017578125
5.906667,0.171844482421875
5.913333,0.859375
5.92,-0.75
5.926667,-0.75
5.933333,0.9140625
5.94,0.0625
5.946667,-0.8203125
5.953333,0.796844482421875
5.96,0.796844482421875
5.966667,-0.921905517578125
5.973333,-0.382843017578125
5.98,-0.101593017578125
5.986667,-0.078155517578125
5.993333,-0.078155517578125
6.0,-0.085968017578125
6.006667,-0.085968017578125
6.013333,-0.023468017578125
6.02,0.054656982421875
6.026667,0.0859375
6.033333,0.0859375
6.04,0.0859375
6.046667,0.09375
6.053333,0.1015625
6.06,0.109375
6.066667,0.1171875
6.073333,0.125
6.08,0.15625
6.086667,0.1796875
6.093333,0.2109375
6.1,0.2421875
6.106667,0.265625
6.113333,0.28125
6.12,0.3125
6.126667,0.3515625
6.133333,0.3984375
6.14,0.4375
6.146667,0.46875
6.153333,0.5
6.16,0.5234375
6.166667,0.5390625
6.173333,0.53125
6.18,0.4921875
6.186667,0.4375
6.193333,0.3671875
6.2,0.2890625
6.206667,0.2109375
6.213333,0.1328125
6.22,0.0703125
6.226667,0.0078125
6.233333,-0.0390625
6.24,-0.078155517578125
6.246667,-0.101593017578125
6.253333,-0.109405517578125
6.26,-0.109405517578125
6.266667,-0.117218017578125
6.273333,-0.109405517578125
6.28,-0.101593017578125
6.286667,-0.093780517578125
6.293333,-0.085968017578125
6.3,-0.085968017578125
6.306667,-0.085968017578125
6.313333,-0.078155517578125
6.32,-0.062530517578125
6.326667,-0.054718017578125
6.333333,-0.046905517578125
6.34,-0.046905517578125
6.346667,-0.039093017578125
6.353333,-0.031280517578125
6.36,-0.023468017578125
6.366667,-0.031280517578125
6.373333,-0.046905517578125
6.38,-0.062530517578125
6.386667,-0.070343017578125
6.393333,-0.070343017578125
6.4,-0.054718017578125
6.406667,-0.039093017578125
6.413333,-0.015655517578125
6.42,0.015594482421875
6.426667,0.0546875
6.433333,0.0859375
6.44,0.1171875
6.446667,0.1328125
6.453333,0.1484375
6.46,0.15625
6.466667,0.15625
6.473333,0.140625
6.48,0.109375
6.486667,0.0859375
6.493333,0.0625
6.5,0.03125
6.506667,-0.0078125
6.513333,-0.054718017578125
6.52,-0.117218017578125
6.526667,-0.164093017578125
6.533333,-0.210968017578125
6.54,-0.234405517578125
6.546667,0.039031982421875
6.553333,0.578125
6.56,0.8984375
6.566667,0.90625
6.573333,0.8984375
6.58,0.3984375
6.586667,-0.5625
6.593333,0.976531982421875
6.6,0.976531982421875
6.606667,-0.976593017578125
6.613333,-0.750030517578125
6.62,-0.437530517578125
6.626667,-0.242218017578125
6.633333,-0.109405517578125
6.64,-0.031280517578125
6.646667,0.007781982421875
6.653333,0.015625
6.66,0.015625
6.666667,0.0703125
6.673333,0.171875
6.68,0.265625
6.686667,0.28125
6.693333,0.2890625
6.7,0.296875
6.706667,0.296875
6.713333,0.3046875
6.72,0.3203125
6.726667,0.34375
6.733333,0.3828125
6.74,0.4296875
6.746667,0.484375
6.753333,0.53125
6.76,0.5859375
6.766667,0.6484375
6.773333,0.703125
6.78,0.7421875
6.786667,0.7734375
6.793333,0.78125
6.8,0.78125
6.806667,0.7734375
6.813333,0.7734375
6.82,0.765625
6.826667,0.734375
6.833333,0.6796875
6.84,0.6015625
6.846667,0.515625
6.853333,0.4140625
6.86,0.3046875
6.866667,0.1953125
6.873333,0.078125
6.88,-0.0078125
6.886667,-0.062530517578125
6.893333,-0.078155517578125
6.9,-0.070343017578125
6.906667,-0.046905517578125
6.913333,-0.023468017578125
6.92,-3.0517578125e-05
6.926667,0.023406982421875
6.933333,0.0390625
6.94,0.046875
6.946667,0.0390625
6.953333,0.0390625
6.96,0.0390625
6.966667,0.03125
6.973333,0.015625
6.98,0.0078125
6.986667,-0.0078125
6.993333,-0.023468017578125
7.0,-0.039093017578125
7.006667,-0.054718017578125
7.013333,-0.062530517578125
7.02,-0.070343017578125
7.026667,-0.062530517578125
7.033333,-0.062530517578125
7.04,-0.062530517578125
7.046667,-0.062530517578125
7.053333,-0.054718017578125
7.06,-0.031280517578125
7.066667,0.007781982421875
7.073333,0.0546875
7.08,0.0859375
7.086667,0.1171875
7.093333,0.1328125
7.1,0.140625
7.106667,0.1171875
7.113333,0.0625
7.12,0.0
7.126667,-0.062530517578125
7.133333,-0.109405517578125
7.14,-0.148468017578125
7.146667,-0.179718017578125
7.153333,-0.203155517578125
7.16,-0.203155517578125
7.166667,-0.195343017578125
7.173333,-0.187530517578125
7.18,0.179656982421875
7.186667,0.8984375
7.193333,-0.703125
7.2,-0.703125
7.206667,1.0
7.213333,0.21875
7.22,-0.5703125
7.226667,-0.867218017578125
7.233333,-0.867218017578125
7.24,-0.726593017578125
7.246667,-0.445343017578125
7.253333,-0.187530517578125
7.26,-0.039093017578125
7.266667,0.015594482421875
7.273333,0.0234375
7.28,0.0234375
7.286667,0.0703125
7.293333,0.109375
7.3,0.109375
7.306667,0.1015625
7.313333,0.0859375
7.32,0.0859375
7.326667,0.1015625
7.333333,0.1484375
7.34,0.1953125
7.346667,0.234375
7.353333,0.265625
7.36,0.2890625
7.366667,0.328125
7.373333,0.375
7.38,0.421875
7.386667,0.4765625
7.393333,0.5078125
7.4,0.53125
7.406667,0.5625
7.413333,0.5859375
7.42,0.6171875
7.426667,0.640625
7.433333,0.6484375
7.44,0.640625
7.446667,0.6328125
7.453333,0.609375
7.46,0.5546875
7.466667,0.4765625
7.473333,0.3671875
7.48,0.25
7.486667,0.140625
7.493333,0.0390625
7.5,-0.0546875
7.506667,-0.140655517578125
7.513333,-0.195343017578125
7.52,-0.226593017578125
7.526667,-0.234405517578125
7.533333,-0.250030517578125
7.54,-0.265655517578125
7.546667,-0.273468017578125
7.553333,-0.273468017578125
7.56,-0.273468017578125
7.566667,-0.265655517578125
7.573333,-0.242218017578125
7.58,-0.210968017578125
7.586667,-0.171905517578125
7.593333,-0.140655517578125
7.6,-0.132843017578125
7.606667,-0.132843017578125
7.613333,-0.148468017578125
7.62,-0.171905517578125
7.626667,-0.195343017578125
7.633333,-0.218780517578125
7.64,-0.218780517578125
7.646667,-0.210968017578125
7.653333,-0.179718017578125
7.66,-0.140655517578125
7.666667,-0.101593017578125
7.673333,-0.054718017578125
7.68,-0.015655517578125
7.686667,0.015594482421875
7.693333,0.03125
7.7,0.0390625
7.706667,0.046875
7.713333,0.0625
7.72,0.0859375
7.726667,0.109375
7.733333,0.125
7.74,0.1171875
7.746667,0.1015625
7.753333,0.0859375
7.76,0.0703125
7.766667,0.0390625
7.773333,-0.0078125
7.78,-0.062530517578125
7.786667,-0.101593017578125
7.793333,-0.156280517578125
7.8,-0.093780517578125
7.806667,0.062469482421875
7.813333,0.515625
7.82,-0.8359375
7.826667,-0.5078125
7.833333,-0.5078125
7.84,0.9453125
7.846667,-0.171875
7.853333,-0.835968017578125
7.86,-0.945343017578125
7.866667,-0.945343017578125
7.873333,-0.726593017578125
7.88,-0.343780517578125
7.886667,-0.054718017578125
7.893333,0.109344482421875
7.9,0.15625
7.906667,0.15625
7.913333,0.078125
7.92,0.0
7.926667,-3.0517578125e-05
7.933333,0.015594482421875
7.94,0.0546875
7.946667,0.0859375
7.953333,0.109375
7.96,0.1328125
7.966667,0.1640625
7.973333,0.1953125
7.98,0.265625
7.986667,0.328125
7.993333,0.375
8.0,0.4140625
8.006667,0.4453125
8.013333,0.46875
8.02,0.484375
8.026667,0.4921875
8.033333,0.5078125
8.04,0.53125
8.046667,0.5703125
8.053333,0.6015625
8.06,0.6328125
8.066667,0.6484375
8.073333,0.6484375
8.08,0.625
8.086667,0.5703125
8.093333,0.5
8.1,0.4140625
8.106667,0.3359375
8.113333,0.2578125
8.12,0.1796875
8.126667,0.109375
8.133333,0.0625
8.14,0.0234375
8.146667,-0.0078125
8.153333,-0.031280517578125
8.16,-0.054718017578125
8.166667,-0.085968017578125
8.173333,-0.085968017578125
8.18,-0.070343017578125
8.186667,-0.046905517578125
8.193333,-0.023468017578125
8.2,-0.007843017578125
8.206667,-0.007843017578125
8.213333,-0.007843017578125
8.22,-0.015655517578125
8.226667,-0.015655517578125
8.233333,-0.031280517578125
8.24,-0.046905517578125
8.246667,-0.062530517578125
8.253333,-0.078155517578125
8.26,-0.078155517578125
8.266667,-0.078155517578125
8.273333,-0.070343017578125
8.28,-0.054718017578125
8.286667,-0.054718017578125
8.293333,-0.054718017578125
8.3,-0.054718017578125
8.306667,-0.046905517578125
8.313333,-0.039093017578125
8.32,-0.023468017578125
8.326667,-3.0517578125e-05
8.333333,0.015594482421875
8.34,0.03125
8.346667,0.0546875
8.353333,0.078125
8.36,0.109375
8.366667,0.1171875
8.373333,0.1015625
8.38,0.0703125
8.386667,0.0390625
8.393333,0.015625
8.4,-0.0078125
8.406667,-0.023468017578125
8.413333,-0.039093017578125
8.42,-0.054718017578125
8.426667,-0.070343017578125
8.433333,-0.093780517578125
8.44,-0.109405517578125
8.446667,0.031219482421875
8.453333,0.7265625
8.46,-0.875
8.466667,-0.875
8.473333,0.7890625
8.48,-0.0625
8.486667,-0.812530517578125
8.493333,0.953094482421875
8.5,0.953094482421875
8.506667,-0.835968017578125
8.513333,-0.539093017578125
8.52,-0.414093017578125
8.526667,-0.414093017578125
8.533333,-0.414093017578125
8.54,-0.328155517578125
8.546667,-0.156280517578125
8.553333,-3.0517578125e-05
8.56,0.023406982421875
8.566667,0.0234375
8.573333,0.0
8.58,-0.023468017578125
8.586667,-0.023468017578125
8.593333,-0.007843017578125
8.6,0.015594482421875
8.606667,0.0390625
8.613333,0.0703125
8.62,0.109375
8.626667,0.15625
8.633333,0.2109375
8.64,0.2734375
8.646667,0.328125
8.653333,0.375
8.66,0.421875
8.666667,0.4609375
8.673333,0.484375
8.68,0.5078125
8.686667,0.5234375
8.693333,0.5390625
8.7,0.5546875
8.706667,0.5625
8.713333,0.5703125
8.72,0.5703125
8.726667,0.5546875
8.733333,0.5078125
8.74,0.453125
8.746667,0.3828125
8.753333,0.3125
8.76,0.234375
8.766667,0.1484375
8.773333,0.0703125
8.78,0.0078125
8.786667,-0.0390625
8.793333,-0.062530517578125
8.8,-0.078155517578125
8.806667,-0.085968017578125
8.813333,-0.085968017578125
8.82,-0.070343017578125
8.826667,-0.046905517578125
8.833333,-0.031280517578125
8.84,-0.023468017578125
8.846667,-0.023468017578125
8.853333,-0.023468017578125
8.86,-0.023468017578125
8.866667,-0.015655517578125
8.873333,-0.023468017578125
8.88,-0.039093017578125
8.886667,-0.054718017578125
8.893333,-0.054718017578125
8.9,-0.054718017578125
8.906667,-0.054718017578125
8.913333,-0.062530517578125
8.92,-0.070343017578125
8.926667,-0.070343017578125
8.933333,-0.062530517578125
8.94,-0.046905517578125
8.946667,-0.039093017578125
8.953333,-0.031280517578125
8.96,-0.007843017578125
8.966667,0.015594482421875
8.973333,0.03125
8.98,0.03125
8.986667,0.0234375
8.993333,0.0078125
9.0,-0.0078125
9.006667,-0.023468017578125
9.013333,-0.039093017578125
9.02,-0.054718017578125
9.026667,-0.078155517578125
9.033333,-0.101593017578125
9.04,-0.117218017578125
9.046667,-0.117218017578125
9.053333,-0.125030517578125
9.06,-0.132843017578125
9.066667,-0.109405517578125
9.073333,-0.023468017578125
9.08,-0.992218017578125
9.086667,-0.9921875
9.093333,0.9375
9.1,0.453125
9.106667,-0.3125
9.113333,-0.671905517578125
9.12,-0.695343017578125
9.126667,-0.695343017578125
9.133333,-0.546905517578125
9.14,-0.289093017578125
9.146667,-0.109405517578125
9.153333,-0.039093017578125
9.16,-0.015655517578125
9.166667,-3.0517578125e-05
9.173333,0.039031982421875
9.18,0.0703125
9.186667,0.078125
9.193333,0.078125
9.2,0.1328125
9.206667,0.1875
9.213333,0.1875
9.22,0.171875
9.226667,0.15625
9.233333,0.1484375
9.24,0.1640625
9.246667,0.203125
9.253333,0.234375
9.26,0.2578125
9.266667,0.2890625
9.273333,0.3203125
9.28,0.359375
9.286667,0.40625
9.293333,0.4296875
9.3,0.4453125
9.306667,0.453125
9.313333,0.46875
9.32,0.484375
9.326667,0.5
9.333333,0.5078125
9.34,0.5
9.346667,0.46875
9.353333,0.4375
9.36,0.3828125
9.366667,0.328125
9.373333,0.25
9.38,0.1640625
9.386667,0.0703125
9.393333,-0.0078125
9.4,-0.062530517578125
9.406667,-0.109405517578125
9.413333,-0.140655517578125
9.42,-0.156280517578125
9.426667,-0.164093017578125
9.433333,-0.164093017578125
9.44,-0.148468017578125
9.446667,-0.140655517578125
9.453333,-0.140655517578125
9.46,-0.140655517578125
9.466667,-0.140655517578125
9.473333,-0.125030517578125
9.48,-0.101593017578125
9.486667,-0.078155517578125
9.493333,-0.062530517578125
9.5,-0.046905517578125
9.506667,-0.023468017578125
9.513333,-0.007843017578125
9.52,-3.0517578125e-05
9.526667,-0.007843017578125
9.533333,-0.015655517578125
9.54,-0.023468017578125
9.546667,-0.031280517578125
9.553333,-0.031280517578125
9.56,-0.015655517578125
9.566667,-3.0517578125e-05
9.573333,0.031219482421875
9.58,0.0625
9.586667,0.09375
9.593333,0.1171875
9.6,0.125
9.606667,0.1171875
9.613333,0.09375
9.62,0.0625
9.626667,0.03125
9.633333,0.0
9.64,-0.023468017578125
9.646667,-0.062530517578125
9.653333,-0.101593017578125
9.66,-0.125030517578125
9.666667,-0.109405517578125
9.673333,-0.015655517578125
9.68,0.929656982421875
9.686667,0.9375
9.693333,0.9375
9.7,0.5
9.706667,-0.328125
9.713333,-0.726593017578125
9.72,-0.726593017578125
9.726667,-0.648468017578125
9.733333,-0.460968017578125
9.74,-0.320343017578125
9.746667,-0.273468017578125
9.753333,-0.171905517578125
9.76,-3.0517578125e-05
9.766667,0.093719482421875
9.773333,0.09375
9.78,0.09375
9.786667,0.09375
9.793333,0.140625
9.8,0.1796875
9.806667,0.1796875
9.813333,0.171875
9.82,0.171875
9.826667,0.1796875
9.833333,0.2109375
9.84,0.2421875
9.846667,0.2578125
9.853333,0.2734375
9.86,0.2890625
9.866667,0.3125
9.873333,0.3515625
9.88,0.390625
9.886667,0.4296875
9.893333,0.46875
9.9,0.5078125
9.906667,0.5390625
9.913333,0.5546875
9.92,0.5546875
9.926667,0.53125
9.933333,0.484375
9.94,0.4140625
9.946667,0.3359375
9.953333,0.2578125
9.96,0.1796875
9.966667,0.109375
9.973333,0.03125
9.98,-0.046875
9.986667,-0.109405517578125
9.993333,-0.156280517578125
10.0,-0.195343017578125
10.006667,-0.226593017578125
10.013333,-0.257843017578125
10.02,-0.281280517578125
10.026667,-0.281280517578125
10.033333,-0.265655517578125
10.04,-0.250030517578125
10.046667,-0.242218017578125
10.053333,-0.242218017578125
10.06,-0.250030517578125
10.066667,-0.242218017578125
10.073333,-0.218780517578125
10.08,-0.187530517578125
10.086667,-0.156280517578125
10.093333,-0.140655517578125
10.1,-0.117218017578125
10.106667,-0.101593017578125
10.113333,-0.085968017578125
10.12,-0.085968017578125
10.126667,-0.093780517578125
10.133333,-0.085968017578125
10.14,-0.062530517578125
10.146667,-0.039093017578125
10.153333,-0.007843017578125
10.16,0.023406982421875
10.166667,0.0625
10.173333,0.1015625
10.18,0.125
10.186667,0.109375
10.193333,0.0703125
10.2,0.0234375
10.206667,0.0
10.213333,-0.015655517578125
10.22,-0.023468017578125
10.226667,-0.039093017578125
10.233333,-0.078155517578125
10.24,-0.101593017578125
10.246667,-0.101593017578125
10.253333,-0.093780517578125
10.26,-0.062530517578125
10.266667,0.757781982421875
10.273333,-0.921875
10.28,-0.921875
10.286667,0.7421875
10.293333,0.0
10.3,-0.640655517578125
10.306667,-0.890655517578125
10.313333,-0.890655517578125
10.32,-0.804718017578125
10.326667,-0.656280517578125
10.333333,-0.507843017578125
10.34,-0.351593017578125
10.346667,-0.265655517578125
10.353333,-0.226593017578125
10.36,-0.218780517578125
10.366667,-0.218780517578125
10.373333,-0.148468017578125
10.38,-0.093780517578125
10.386667,-0.054718017578125
10.393333,-0.054718017578125
10.4,-0.054718017578125
10.406667,-0.046905517578125
10.413333,-0.031280517578125
10.42,-0.023468017578125
10.426667,-0.007843017578125
10.433333,0.015594482421875
10.44,0.0546875
10.446667,0.09375
10.453333,0.1484375
10.46,0.203125
10.466667,0.265625
10.473333,0.3203125
10.48,0.375
10.486667,0.421875
10.493333,0.4453125
10.5,0.453125
10.506667,0.4609375
10.513333,0.46875
10.52,0.4765625
10.526667,0.484375
10.533333,0.4765625
10.54,0.4296875
10.546667,0.3671875
10.553333,0.3046875
10.56,0.25
10.566667,0.1796875
10.573333,0.109375
10.58,0.03125
10.586667,-0.03125
10.593333,-0.054718017578125
10.6,-0.054718017578125
10.606667,-0.054718017578125
10.613333,-0.054718017578125
10.62,-0.062530517578125
10.626667,-0.070343017578125
10.633333,-0.062530517578125
10.64,-0.046905517578125
10.646667,-0.039093017578125
10.653333,-0.023468017578125
10.66,-3.0517578125e-05
10.666667,0.031219482421875
10.673333,0.0625
10.68,0.0859375
10.686667,0.09375
10.693333,0.1015625
10.7,0.1015625
10.706667,0.109375
10.713333,0.109375
10.72,0.109375
10.726667,0.1015625
10.733333,0.1015625
10.74,0.09375
10.746667,0.0859375
10.753333,0.078125
10.76,0.0703125
10.766667,0.0546875
10.773333,0.03125
10.78,0.0
10.786667,-0.031280517578125
10.793333,-0.046905517578125
10.8,-0.070343017578125
10.806667,-0.093780517578125
10.813333,-0.117218017578125
10.82,-0.125030517578125
10.826667,-0.132843017578125
10.833333,-0.148468017578125
10.84,-0.171905517578125
10.846667,-0.195343017578125
10.853333,-0.210968017578125
10.86,-0.234405517578125
10.866667,-0.257843017578125
10.873333,-0.289093017578125
10.88,-0.304718017578125
10.886667,-0.250030517578125
10.893333,0.679656982421875
10.9,0.796875
10.906667,0.796875
10.913333,0.359375
10.92,-0.4453125
10.926667,-0.820343017578125
10.933333,-0.820343017578125
10.94,-0.796905517578125
10.946667,-0.679718017578125
10.953333,-0.507843017578125
10.96,-0.367218017578125
10.966667,-0.234405517578125
10.973333,-0.125030517578125
10.98,-0.046905517578125
10.986667,-0.007843017578125
10.993333,-0.007843017578125
11.0,-0.023468017578125
11.006667,-0.046905517578125
11.013333,-0.046905517578125
11.02,0.015594482421875
11.026667,0.1171875
11.033333,0.1484375
11.04,0.15625
11.046667,0.171875
11.053333,0.203125
11.06,0.2421875
11.066667,0.2734375
11.073333,0.296875
11.08,0.34375
11.086667,0.375
11.093333,0.3984375
11.1,0.4375
11.106667,0.46875
11.113333,0.5
11.12,0.515625
11.126667,0.53125
11.133333,0.5390625
11.14,0.5390625
11.146667,0.5390625
11.153333,0.5234375
11.16,0.4921875
11.166667,0.4375
11.173333,0.3671875
11.18,0.296875
11.186667,0.2421875
11.193333,0.1875
11.2,0.1328125
11.206667,0.078125
11.213333,0.0390625
11.22,0.0078125
11.226667,0.0
11.233333,-3.0517578125e-05
11.24,-3.0517578125e-05
11.246667,-3.0517578125e-05
11.253333,-0.007843017578125
11.26,-0.007843017578125
11.266667,-3.0517578125e-05
11.273333,-3.0517578125e-05
11.28,-3.0517578125e-05
11.286667,-3.0517578125e-05
11.293333,-0.007843017578125
11.3,-3.0517578125e-05
11.306667,0.007781982421875
11.313333,0.015625
11.32,0.015625
11.326667,0.0
11.333333,-0.015655517578125
11.34,-0.023468017578125
11.346667,-0.023468017578125
11.353333,-0.031280517578125
11.36,-0.031280517578125
11.366667,-0.039093017578125
11.373333,-0.031280517578125
11.38,-0.007843017578125
11.386667,0.007781982421875
11.393333,0.015625
11.4,0.0234375
11.406667,0.0234375
11.413333,0.0390625
11.42,0.0546875
11.426667,0.0703125
11.433333,0.0703125
11.44,0.0546875
11.446667,0.0390625
11.453333,0.03125
11.46,0.03125
11.466667,0.015625
11.473333,-0.015625
11.48,-0.054718017578125
11.486667,-0.093780517578125
11.493333,-0.117218017578125
11.5,-0.156280517578125
11.506667,-0.195343017578125
11.513333,-0.242218017578125
11.52,-0.289093017578125
11.526667,-0.335968017578125
11.533333,-0.375030517578125
11.54,-0.406280517578125
11.546667,-0.437530517578125
11.553333,-0.445343017578125
11.56,-0.406280517578125
11.566667,0.421844482421875
11.573333,0.6171875
11.58,0.6171875
11.586667,0.1953125
11.593333,-0.5859375
11.6,-0.953155517578125
11.606667,-0.953155517578125
11.613333,-0.828155517578125
11.62,-0.609405517578125
11.626667,-0.468780517578125
11.633333,-0.421905517578125
11.64,-0.398468017578125
11.646667,-0.351593017578125
11.653333,-0.273468017578125
11.66,-0.187530517578125
11.666667,-0.101593017578125
11.673333,-0.023468017578125
11.68,0.007781982421875
11.686667,0.0078125
11.693333,-0.0078125
11.7,-0.031280517578125
11.706667,-0.031280517578125
11.713333,-0.023468017578125
11.72,-0.015655517578125
11.726667,-0.007843017578125
11.733333,-3.0517578125e-05
11.74,0.007781982421875
11.746667,0.015625
11.753333,0.046875
11.76,0.09375
11.766667,0.1328125
11.773333,0.1796875
11.78,0.2265625
11.786667,0.2734375
11.793333,0.3125
11.8,0.3359375
11.806667,0.34375
11.813333,0.34375
11.82,0.34375
11.826667,0.3359375
11.833333,0.328125
11.84,0.3203125
11.846667,0.296875
11.853333,0.265625
11.86,0.21875
11.866667,0.1640625
11.873333,0.0859375
11.88,0.0
11.886667,-0.085968017578125
11.893333,-0.164093017578125
11.9,-0.218780517578125
11.906667,-0.250030517578125
11.913333,-0.250030517578125
11.92,-0.234405517578125
11.926667,-0.203155517578125
11.933333,-0.171905517578125
11.94,-0.140655517578125
11.946667,-0.109405517578125
11.953333,-0.085968017578125
11.96,-0.062530517578125
11.966667,-0.054718017578125
11.973333,-0.054718017578125
11.98,-0.054718017578125
11.986667,-0.054718017578125
11.993333,-0.046905517578125
12.0,-0.023468017578125
12.006667,-0.007843017578125
12.013333,0.015594482421875
12.02,0.0234375
12.026667,0.0234375
12.033333,0.0234375
12.04,0.03125
12.046667,0.0234375
12.053333,0.015625
12.06,-0.0078125
12.066667,-0.023468017578125
12.073333,-0.039093017578125
12.08,-0.039093017578125
12.086667,-0.031280517578125
12.093333,-0.023468017578125
12.1,-0.015655517578125
12.106667,-0.015655517578125
12.113333,-0.007843017578125
12.12,0.007781982421875
12.126667,0.03125
12.133333,0.046875
12.14,0.0625
12.146667,0.0703125
12.153333,0.0703125
12.16,0.0703125
12.166667,0.0703125
12.173333,0.0703125
12.18,0.0859375
12.186667,0.09375
12.193333,0.109375
12.2,0.1171875
12.206667,0.1171875
12.213333,0.109375
12.22,0.109375
12.226667,0.09375
12.233333,0.0546875
12.24,0.0078125
12.246667,-0.046875
12.253333,-0.085968017578125
12.26,-0.109405517578125
12.266667,-0.140655517578125
12.273333,-0.171905517578125
12.28,-0.187530517578125
12.286667,0.312469482421875
12.293333,0.7890625
12.3,0.9375
12.306667,0.9375
12.313333,0.5234375
12.32,-0.2734375
12.326667,-0.703155517578125
12.333333,-0.750030517578125
12.34,-0.750030517578125
12.346667,-0.617218017578125
12.353333,-0.421905517578125
12.36,-0.296905517578125
12.366667,-0.195343017578125
12.373333,-0.117218017578125
12.38,-0.085968017578125
12.386667,-0.078155517578125
12.393333,-0.039093017578125
12.4,0.054656982421875
12.406667,0.1484375
12.413333,0.1796875
12.42,0.1796875
12.426667,0.171875
12.433333,0.171875
12.44,0.1640625
12.446667,0.1640625
12.453333,0.15625
12.46,0.171875
12.466667,0.2109375
12.473333,0.265625
12.48,0.3203125
12.486667,0.375
12.493333,0.4375
12.5,0.5078125
12.506667,0.5703125
12.513333,0.6171875
12.52,0.625
12.526667,0.6171875
12.533333,0.6015625
12.54,0.578125
12.546667,0.5546875
12.553333,0.515625
12.56,0.4609375
12.566667,0.390625
12.573333,0.3359375
12.58,0.28125
12.586667,0.2265625
12.593333,0.171875
12.6,0.1015625
12.606667,0.03125
12.613333,-0.015625
12.62,-0.054718017578125
12.626667,-0.093780517578125
12.633333,-0.125030517578125
12.64,-0.164093017578125
12.646667,-0.195343017578125
12.653333,-0.218780517578125
12.66,-0.226593017578125
12.666667,-0.218780517578125
12.673333,-0.195343017578125
12.68,-0.164093017578125
12.686667,-0.125030517578125
12.693333,-0.101593017578125
12.7,-0.085968017578125
12.706667,-0.078155517578125
12.713333,-0.070343017578125
12.72,-0.062530517578125
12.726667,-0.078155517578125
12.733333,-0.101593017578125
12.74,-0.125030517578125
12.746667,-0.140655517578125
12.753333,-0.148468017578125
12.76,-0.132843017578125
12.766667,-0.117218017578125
12.773333,-0.093780517578125
12.78,-0.078155517578125
12.786667,-0.062530517578125
12.793333,-0.054718017578125
12.8,-0.046905517578125
12.806667,-0.046905517578125
12.813333,-0.039093017578125
12.82,-0.039093017578125
12.826667,-0.039093017578125
12.833333,-0.046905517578125
12.84,-0.039093017578125
12.846667,-0.031280517578125
12.853333,-0.023468017578125
12.86,-0.015655517578125
12.866667,-0.007843017578125
12.873333,-0.007843017578125
12.88,-0.007843017578125
12.886667,-0.023468017578125
12.893333,-0.039093017578125
12.9,-0.046905517578125
12.906667,-0.046905517578125
12.913333,-0.039093017578125
12.92,-0.039093017578125
12.926667,-0.031280517578125
12.933333,-0.023468017578125
12.94,-3.0517578125e-05
12.946667,0.023406982421875
12.953333,0.046875
12.96,0.0546875
12.966667,0.0625
12.973333,0.0625
12.98,0.0703125
12.986667,0.0625
12.993333,0.0546875
13.0,0.03125
13.006667,0.0078125
13.013333,-0.0078125
13.02,-0.015655517578125
13.026667,-0.031280517578125
13.033333,-0.039093017578125
13.04,-0.054718017578125
13.046667,-0.062530517578125
13.053333,-0.039093017578125
13.06,0.734344482421875
13.066667,-0.875
13.073333,-0.875
13.08,-0.9453125
13.086667,0.40625
13.093333,-0.5234375
13.1,-0.890655517578125
13.106667,-0.890655517578125
13.113333,-0.695343017578125
13.12,-0.375030517578125
13.126667,-0.210968017578125
13.133333,-0.171905517578125
13.14,-0.164093017578125
13.146667,-0.117218017578125
13.153333,-0.062530517578125
13.16,-0.046905517578125
13.166667,-0.046905517578125
13.173333,-0.054718017578125
13.18,-0.054718017578125
13.186667,0.023406982421875
13.193333,0.2109375
13.2,0.265625
13.206667,0.28125
13.213333,0.28125
13.22,0.265625
13.226667,0.2578125
13.233333,0.2578125
13.24,0.265625
13.246667,0.2890625
13.253333,0.3046875
13.26,0.3203125
13.266667,0.34375
13.273333,0.375
13.28,0.4296875
13.286667,0.484375
13.293333,0.53125
13.3,0.5703125
13.306667,0.59375
13.313333,0.609375
13.32,0.625
13.326667,0.6171875
13.333333,0.578125
13.34,0.5
13.346667,0.4140625
13.353333,0.328125
13.36,0.2421875
13.366667,0.15625
13.373333,0.078125
13.38,0.0078125
13.386667,-0.0390625
13.393333,-0.070343017578125
13.4,-0.093780517578125
13.406667,-0.109405517578125
13.413333,-0.125030517578125
13.42,-0.125030517578125
13.426667,-0.117218017578125
13.433333,-0.109405517578125
13.44,-0.101593017578125
13.446667,-0.078155517578125
13.453333,-0.046905517578125
13.46,-0.015655517578125
13.466667,-3.0517578125e-05
13.473333,0.007781982421875
13.48,0.0078125
13.486667,0.0
13.493333,-0.015655517578125
13.5,-0.031280517578125
13.506667,-0.039093017578125
13.513333,-0.054718017578125
13.52,-0.062530517578125
13.526667,-0.062530517578125
13.533333,-0.062530517578125
13.54,-0.046905517578125
13.546667,-0.031280517578125
13.553333,-0.015655517578125
13.56,-3.0517578125e-05
13.566667,-3.0517578125e-05
13.573333,-0.015655517578125
13.58,-0.023468017578125
13.586667,-0.031280517578125
13.593333,-0.039093017578125
13.6,-0.054718017578125
13.606667,-0.070343017578125
13.613333,-0.078155517578125
13.62,-0.070343017578125
13.626667,-0.054718017578125
13.633333,-0.039093017578125
13.64,-0.039093017578125
13.646667,-0.046905517578125
13.653333,-0.062530517578125
13.66,-0.070343017578125
13.666667,-0.070343017578125
13.673333,-0.062530517578125
13.68,-0.062530517578125
13.686667,-0.054718017578125
13.693333,-0.031280517578125
13.7,-0.007843017578125
13.706667,0.023406982421875
13.713333,0.0390625
13.72,0.0546875
13.726667,0.078125
13.733333,0.109375
13.74,0.140625
13.746667,0.1640625
13.753333,0.171875
13.76,0.1640625
13.766667,0.140625
13.773333,0.109375
13.78,0.0625
13.786667,0.0078125
13.793333,-0.03125
13.8,-0.062530517578125
13.806667,-0.093780517578125
13.813333,-0.117218017578125
13.82,-0.117218017578125
13.826667,-0.117218017578125
13.833333,0.171844482421875
13.84,0.8203125
13.846667,-0.828125
13.853333,-0.828125
13.86,0.8046875
13.866667,-0.0078125
13.873333,-0.648468017578125
13.88,-0.851593017578125
13.886667,-0.851593017578125
13.893333,-0.679718017578125
13.9,-0.382843017578125
13.906667,-0.164093017578125
13.913333,-0.070343017578125
13.92,-0.046905517578125
13.926667,-0.039093017578125
13.933333,-3.0517578125e-05
13.94,0.085906982421875
13.946667,0.140625
13.953333,0.140625
13.96,0.1171875
13.966667,0.09375
13.973333,0.09375
13.98,0.09375
13.986667,0.1015625
13.993333,0.109375
14.0,0.1171875
14.006667,0.1328125
14.013333,0.171875
14.02,0.2265625
14.026667,0.2890625
14.033333,0.34375
14.04,0.3984375
14.046667,0.4609375
14.053333,0.53125
14.06,0.59375
14.066667,0.640625
14.073333,0.6640625
14.08,0.6796875
14.086667,0.6953125
14.093333,0.7109375
14.1,0.7109375
14.106667,0.6796875
14.113333,0.6328125
14.12,0.578125
14.126667,0.515625
14.133333,0.453125
14.14,0.3671875
14.146667,0.28125
14.153333,0.1875
14.16,0.109375
14.166667,0.046875
14.173333,-0.015625
14.18,-0.054718017578125
14.186667,-0.093780517578125
14.193333,-0.109405517578125
14.2,-0.109405517578125
14.206667,-0.093780517578125
14.213333,-0.070343017578125
14.22,-0.046905517578125
14.226667,-0.023468017578125
14.233333,-3.0517578125e-05
14.24,0.023406982421875
14.246667,0.03125
14.253333,0.0234375
14.26,0.0078125
14.266667,-0.0078125
14.273333,-0.007843017578125
14.28,-3.0517578125e-05
14.286667,0.007781982421875
14.293333,0.0234375
14.3,0.0390625
14.306667,0.0546875
14.313333,0.0625
14.32,0.0703125
14.326667,0.046875
14.333333,0.015625
14.34,-0.015625
14.346667,-0.039093017578125
14.353333,-0.046905517578125
14.36,-0.046905517578125
14.366667,-0.046905517578125
14.373333,-0.039093017578125
14.38,-0.031280517578125
14.386667,-0.015655517578125
14.393333,-3.0517578125e-05
14.4,-3.0517578125e-05
14.406667,-0.007843017578125
14.413333,-0.015655517578125
14.42,-0.023468017578125
14.426667,-0.031280517578125
14.433333,-0.039093017578125
14.44,-0.039093017578125
14.446667,-0.046905517578125
14.453333,-0.046905517578125
14.46,-0.039093017578125
14.466667,-0.023468017578125
14.473333,-0.007843017578125
14.48,0.007781982421875
14.486667,0.015625
14.493333,0.03125
14.5,0.0390625
14.506667,0.0546875
14.513333,0.0703125
14.52,0.1015625
14.526667,0.1171875
14.533333,0.125
14.54,0.125
14.546667,0.109375
14.553333,0.09375
14.56,0.078125
14.566667,0.0390625
14.573333,0.0
14.58,-0.039093017578125
14.586667,-0.070343017578125
14.593333,-0.085968017578125
14.6,-0.093780517578125
14.606667,-0.101593017578125
14.613333,-0.109405517578125
14.62,0.124969482421875
14.626667,0.75
14.633333,-0.8828125
14.64,-0.8828125
14.646667,0.75
14.653333,-0.109375
14.66,-0.703155517578125
14.666667,-0.804718017578125
14.673333,-0.804718017578125
14.68,-0.656280517578125
14.686667,-0.429718017578125
14.693333,-0.281280517578125
14.7,-0.164093017578125
14.706667,-0.085968017578125
14.713333,-0.054718017578125
14.72,-0.039093017578125
14.726667,-3.0517578125e-05
14.733333,0.070281982421875
14.74,0.125
14.746667,0.1484375
14.753333,0.1484375
14.76,0.140625
14.766667,0.125
14.773333,0.125
14.78,0.1328125
14.786667,0.15625
14.793333,0.171875
14.8,0.171875
14.806667,0.1796875
14.813333,0.1875
14.82,0.21875
14.826667,0.2734375
14.833333,0.3359375
14.84,0.3828125
14.846667,0.4296875
14.853333,0.46875
14.86,0.515625
14.866667,0.5625
14.873333,0.578125
14.88,0.5546875
14.886667,0.515625
14.893333,0.46875
14.9,0.4140625
14.906667,0.359375
14.913333,0.296875
14.92,0.2265625
14.926667,0.1640625
14.933333,0.1171875
14.94,0.078125
14.946667,0.046875
14.953333,0.0078125
14.96,-0.03125
14.966667,-0.054718017578125
14.973333,-0.078155517578125
14.98,-0.085968017578125
14.986667,-0.085968017578125
14.993333,-0.085968017578125
15.0,-0.085968017578125
15.006667,-0.078155517578125
15.013333,-0.070343017578125
15.02,-0.062530517578125
15.026667,-0.046905517578125
15.033333,-0.039093017578125
15.04,-0.054718017578125
15.046667,-0.070343017578125
15.053333,-0.101593017578125
15.06,-0.117218017578125
15.066667,-0.117218017578125
15.073333,-0.101593017578125
15.08,-0.078155517578125
15.086667,-0.054718017578125
15.093333,-0.039093017578125
15.1,-0.023468017578125
15.106667,-0.015655517578125
15.113333,-0.007843017578125
15.12,-3.0517578125e-05
15.126667,-0.015655517578125
15.133333,-0.046905517578125
15.14,-0.085968017578125
15.146667,-0.125030517578125
15.153333,-0.140655517578125
15.16,-0.140655517578125
15.166667,-0.132843017578125
15.173333,-0.125030517578125
15.18,-0.117218017578125
15.186667,-0.093780517578125
15.193333,-0.070343017578125
15.2,-0.046905517578125
15.206667,-0.039093017578125
15.213333,-0.046905517578125
15.22,-0.054718017578125
15.226667,-0.070343017578125
15.233333,-0.085968017578125
15.24,-0.101593017578125
15.246667,-0.109405517578125
15.253333,-0.109405517578125
15.26,-0.093780517578125
15.266667,-0.078155517578125
15.273333,-0.062530517578125
15.28,-0.046905517578125
15.286667,-0.015655517578125
15.293333,0.023406982421875
15.3,0.0546875
15.306667,0.0703125
15.313333,0.09375
15.32,0.1171875
15.326667,0.140625
15.333333,0.1484375
15.34,0.140625
15.346667,0.1171875
15.353333,0.09375
15.36,0.0703125
15.366667,0.046875
15.373333,0.03125
15.38,0.0
15.386667,-0.023468017578125
15.393333,-0.031280517578125
15.4,0.140594482421875
15.406667,0.7578125
15.413333,-0.828125
15.42,-0.828125
15.426667,0.921875
15.433333,0.1640625
15.44,-0.6171875
15.446667,-0.906280517578125
15.453333,-0.906280517578125
15.46,-0.718780517578125
15.466667,-0.375030517578125
15.473333,-0.156280517578125
15.48,-0.101593017578125
15.486667,-0.101593017578125
15.493333,-0.109405517578125
15.5,-0.109405517578125
15.506667,-0.046905517578125
15.513333,0.085906982421875
15.52,0.1953125
15.526667,0.234375
15.533333,0.234375
15.54,0.2265625
15.546667,0.21875
15.553333,0.21875
15.56,0.2265625
15.566667,0.25
15.573333,0.265625
15.58,0.28125
15.586667,0.296875
15.593333,0.328125
15.6,0.3671875
15.606667,0.40625
15.613333,0.4453125
15.62,0.484375
15.626667,0.53125
15.633333,0.5859375
15.64,0.6328125
15.646667,0.6640625
15.653333,0.671875
15.66,0.6640625
15.666667,0.6484375
15.673333,0.6171875
15.68,0.5546875
15.686667,0.4765625
15.693333,0.390625
15.7,0.3125
15.706667,0.25
15.713333,0.1953125
15.72,0.1328125
15.726667,0.078125
15.733333,0.03125
15.74,-0.0078125
15.746667,-0.039093017578125
15.753333,-0.078155517578125
15.76,-0.109405517578125
15.766667,-0.125030517578125
15.773333,-0.148468017578125
15.78,-0.156280517578125
15.786667,-0.171905517578125
15.793333,-0.171905517578125
15.8,-0.164093017578125
15.806667,-0.156280517578125
15.813333,-0.140655517578125
15.82,-0.125030517578125
15.826667,-0.101593017578125
15.833333,-0.085968017578125
15.84,-0.070343017578125
15.846667,-0.070343017578125
15.853333,-0.085968017578125
15.86,-0.101593017578125
15.866667,-0.132843017578125
15.873333,-0.164093017578125
15.88,-0.179718017578125
15.886667,-0.195343017578125
15.893333,-0.195343017578125
15.9,-0.179718017578125
15.906667,-0.156280517578125
15.913333,-0.117218017578125
15.92,-0.070343017578125
15.926667,-0.039093017578125
15.933333,-0.015655517578125
15.94,-0.015655517578125
15.946667,-0.015655517578125
15.953333,-0.015655517578125
15.96,-0.023468017578125
15.966667,-0.031280517578125
15.973333,-0.046905517578125
15.98,-0.054718017578125
15.986667,-0.046905517578125
15.993333,-0.031280517578125
16.0,-0.023468017578125
16.006667,-0.015655517578125
16.013333,-0.007843017578125
16.02,-3.0517578125e-05
16.026667,0.031219482421875
16.033333,0.0546875
16.04,0.078125
16.046667,0.1015625
16.053333,0.1328125
16.06,0.1640625
16.066667,0.1953125
16.073333,0.2109375
16.08,0.1875
16.086667,0.1484375
16.093333,0.109375
16.1,0.078125
16.106667,0.046875
16.113333,0.015625
16.12,-0.0078125
16.126667,-0.031280517578125
16.133333,-0.039093017578125
16.14,-0.046905517578125
16.146667,-0.062530517578125
16.153333,-0.085968017578125
16.16,-0.117218017578125
16.166667,-0.125030517578125
16.173333,0.507781982421875
16.18,0.9375
16.186667,-0.9765625
16.193333,-0.9765625
16.2,0.4921875
16.206667,-0.515625
16.213333,0.999969482421875
16.22,0.999969482421875
16.226667,-0.914093017578125
16.233333,-0.593780517578125
16.24,-0.187530517578125
16.246667,0.078094482421875
16.253333,0.1796875
16.26,0.1796875
16.266667,0.0859375
16.273333,-0.078125
16.28,-0.164093017578125
16.286667,-0.164093017578125
16.293333,-0.117218017578125
16.3,-0.039093017578125
16.306667,0.062469482421875
16.313333,0.1171875
16.32,0.171875
16.326667,0.203125
16.333333,0.2265625
16.34,0.2421875
16.346667,0.2578125
16.353333,0.28125
16.36,0.3203125
16.366667,0.34375
16.373333,0.359375
16.38,0.3828125
16.386667,0.421875
16.393333,0.484375
16.4,0.5546875
16.406667,0.625
16.413333,0.6875
16.42,0.734375
16.426667,0.765625
16.433333,0.78125
16.44,0.75
16.446667,0.671875
16.453333,0.5625
16.46,0.453125
16.466667,0.359375
16.473333,0.2734375
16.48,0.1875
16.486667,0.109375
16.493333,0.03125
16.5,-0.0078125
16.506667,-0.039093017578125
16.513333,-0.070343017578125
16.52,-0.101593017578125
16.526667,-0.140655517578125
16.533333,-0.164093017578125
16.54,-0.171905517578125
16.546667,-0.171905517578125
16.553333,-0.171905517578125
16.56,-0.171905517578125
16.566667,-0.179718017578125
16.573333,-0.187530517578125
16.58,-0.187530517578125
16.586667,-0.187530517578125
16.593333,-0.179718017578125
16.6,-0.171905517578125
16.606667,-0.164093017578125
16.613333,-0.156280517578125
16.62,-0.140655517578125
16.626667,-0.117218017578125
16.633333,-0.093780517578125
16.64,-0.085968017578125
16.646667,-0.078155517578125
16.653333,-0.070343017578125
16.66,-0.070343017578125
16.666667,-0.062530517578125
16.673333,-0.062530517578125
16.68,-0.070343017578125
16.686667,-0.078155517578125
16.693333,-0.078155517578125
16.7,-0.078155517578125
16.706667,-0.085968017578125
16.713333,-0.093780517578125
16.72,-0.101593017578125
16.726667,-0.101593017578125
16.733333,-0.093780517578125
16.74,-0.085968017578125
16.746667,-0.078155517578125
16.753333,-0.070343017578125
16.76,-0.046905517578125
16.766667,-0.015655517578125
16.773333,0.023406982421875
16.78,0.0546875
16.786667,0.078125
16.793333,0.1015625
16.8,0.125
16.806667,0.1484375
16.813333,0.171875
16.82,0.1796875
16.826667,0.171875
16.833333,0.15625
16.84,0.1328125
16.846667,0.1015625
16.853333,0.0625
16.86,0.0234375
16.866667,-0.0234375
16.873333,-0.070343017578125
16.88,-0.257843017578125
16.886667,-0.257843017578125
16.893333,-0.125030517578125
16.9,0.320281982421875
16.906667,1.0
16.913333,-0.6328125
16.92,-0.6328125
16.926667,0.9296875
16.933333,0.015625
16.94,-0.734375
16.946667,0.992156982421875
16.953333,0.992156982421875
16.96,-0.906280517578125
16.966667,-0.679718017578125
16.973333,-0.382843017578125
16.98,-0.070343017578125
16.986667,0.101531982421875
16.993333,0.1328125
17.0,0.1328125
17.006667,0.1171875
17.013333,0.1015625
17.02,0.09375
17.026667,0.078125
17.033333,0.0546875
17.04,0.0390625
17.046667,0.0390625
17.053333,0.0546875
17.06,0.0859375
17.066667,0.1171875
17.073333,0.1484375
17.08,0.1875
17.086667,0.2421875
17.093333,0.296875
17.1,0.3671875
17.106667,0.421875
17.113333,0.453125
17.12,0.4765625
17.126667,0.4921875
17.133333,0.5078125
17.14,0.5234375
17.146667,0.53125
17.153333,0.53125
17.16,0.5234375
17.166667,0.5078125
17.173333,0.4921875
17.18,0.4765625
17.186667,0.453125
17.193333,0.4140625
17.2,0.3515625
17.206667,0.2890625
17.213333,0.2265625
17.22,0.15625
17.226667,0.09375
17.233333,0.03125
17.24,-0.0234375
17.246667,-0.054718017578125
17.253333,-0.070343017578125
17.26,-0.085968017578125
17.266667,-0.085968017578125
17.273333,-0.085968017578125
17.28,-0.062530517578125
17.286667,-0.046905517578125
17.293333,-0.039093017578125
17.3,-0.031280517578125
17.306667,-0.031280517578125
17.313333,-0.039093017578125
17.32,-0.031280517578125
17.326667,-0.031280517578125
17.333333,-0.031280517578125
17.34,-0.031280517578125
17.346667,-0.023468017578125
17.353333,-0.015655517578125
17.36,-0.007843017578125
17.366667,-3.0517578125e-05
17.373333,-3.0517578125e-05
17.38,-3.0517578125e-05
17.386667,0.007781982421875
17.393333,0.0078125
17.4,0.0
17.406667,-0.007843017578125
17.413333,-0.007843017578125
17.42,-0.007843017578125
17.426667,0.007781982421875
17.433333,0.0234375
17.44,0.046875
17.446667,0.0625
17.453333,0.078125
17.46,0.1015625
17.466667,0.125
17.473333,0.1328125
17.48,0.1328125
17.486667,0.125
17.493333,0.125
17.5,0.109375
17.506667,0.0859375
17.513333,0.0546875
17.52,0.015625
17.526667,-0.0078125
17.533333,-0.031280517578125
17.54,-0.054718017578125
17.546667,-0.070343017578125
17.553333,-0.101593017578125
17.56,-0.125030517578125
17.566667,-0.132843017578125
17.573333,-0.125030517578125
17.58,-0.046905517578125
17.586667,0.890594482421875
17.593333,0.9140625
17.6,0.9140625
17.606667,0.484375
17.613333,-0.2890625
17.62,-0.773468017578125
17.626667,-0.921905517578125
17.633333,-0.921905517578125
17.64,-0.812530517578125
17.646667,-0.554718017578125
17.653333,-0.250030517578125
17.66,-0.078155517578125
17.666667,-0.046905517578125
17.673333,-0.046905517578125
17.68,-0.054718017578125
17.686667,-0.054718017578125
17.693333,-0.007843017578125
17.7,0.031219482421875
17.706667,0.046875
17.713333,0.046875
17.72,0.046875
17.726667,0.0546875
17.733333,0.0703125
17.74,0.09375
17.746667,0.125
17.753333,0.15625
17.76,0.1875
17.766667,0.21875
17.773333,0.2734375
17.78,0.3203125
17.786667,0.375
17.793333,0.421875
17.8,0.4609375
17.806667,0.5
17.813333,0.515625
17.82,0.53125
17.826667,0.5390625
17.833333,0.546875
17.84,0.5390625
17.846667,0.5
17.853333,0.4453125
17.86,0.3984375
17.866667,0.3515625
17.873333,0.296875
17.88,0.2421875
17.886667,0.171875
17.893333,0.09375
17.9,0.046875
17.906667,0.0078125
17.913333,-0.03125
17.92,-0.062530517578125
17.926667,-0.101593017578125
17.933333,-0.132843017578125
17.94,-0.148468017578125
17.946667,-0.148468017578125
17.953333,-0.132843017578125
17.96,-0.109405517578125
17.966667,-0.085968017578125
17.973333,-0.062530517578125
17.98,-0.046905517578125
17.986667,-0.015655517578125
17.993333,0.007781982421875
18.0,0.03125
18.006667,0.015625
18.013333,-0.015625
18.02,-0.046905517578125
18.026667,-0.062530517578125
18.033333,-0.062530517578125
18.04,-0.062530517578125
18.046667,-0.054718017578125
18.053333,-0.054718017578125
18.06,-0.039093017578125
18.066667,-0.023468017578125
18.073333,-3.0517578125e-05
18.08,0.015594482421875
18.086667,0.0078125
18.093333,0.0
18.1,-0.015655517578125
18.106667,-0.031280517578125
18.113333,-0.031280517578125
18.12,-0.031280517578125
18.126667,-0.023468017578125
18.133333,-0.007843017578125
18.14,0.007781982421875
18.146667,0.015625
18.153333,0.015625
18.16,0.0078125
18.166667,0.0078125
18.173333,0.0
18.18,-0.023468017578125
18.186667,-0.070343017578125
18.193333,-0.109405517578125
18.2,-0.140655517578125
18.206667,-0.164093017578125
18.213333,-0.179718017578125
18.22,-0.187530517578125
18.226667,0.359344482421875
18.233333,0.9453125
18.24,-0.8203125
18.246667,-0.8203125
18.253333,0.671875
18.26,-0.265625
18.266667,-0.703155517578125
18.273333,-0.703155517578125
18.28,-0.687530517578125
18.286667,-0.531280517578125
18.293333,-0.273468017578125
18.3,-0.078155517578125
18.306667,0.046844482421875
18.313333,0.1015625
18.32,0.1484375
18.326667,0.1875
18.333333,0.1875
18.34,0.1796875
18.346667,0.1015625
18.353333,0.0234375
18.36,0.0234375
18.366667,0.046875
18.373333,0.078125
18.38,0.109375
18.386667,0.140625
18.393333,0.1796875
18.4,0.21875
18.406667,0.25
18.413333,0.3046875
18.42,0.3515625
18.426667,0.3984375
18.433333,0.4453125
18.44,0.5
18.446667,0.53125
18.453333,0.5625
18.46,0.5703125
18.466667,0.5703125
18.473333,0.5703125
18.48,0.5625
18.486667,0.5390625
18.493333,0.515625
18.5,0.4765625
18.506667,0.421875
18.513333,0.359375
18.52,0.3046875
18.526667,0.2578125
18.533333,0.1953125
18.54,0.1171875
18.546667,0.03125
18.553333,-0.046875
18.56,-0.093780517578125
18.566667,-0.109405517578125
18.573333,-0.125030517578125
18.58,-0.140655517578125
18.586667,-0.148468017578125
18.593333,-0.140655517578125
18.6,-0.117218017578125
18.606667,-0.078155517578125
18.613333,-0.054718017578125
18.62,-0.039093017578125
18.626667,-0.031280517578125
18.633333,-0.039093017578125
18.64,-0.039093017578125
18.646667,-0.023468017578125
18.653333,-3.0517578125e-05
18.66,-3.0517578125e-05
18.666667,0.007781982421875
18.673333,0.0
18.68,0.007781982421875
18.686667,0.0234375
18.693333,0.0390625
18.7,0.0390625
18.706667,0.015625
18.713333,-0.015625
18.72,-0.054718017578125
18.726667,-0.085968017578125
18.733333,-0.109405517578125
18.74,-0.117218017578125
18.746667,-0.109405517578125
18.753333,-0.101593017578125
18.76,-0.085968017578125
18.766667,-0.062530517578125
18.773333,-0.046905517578125
18.78,-0.023468017578125
18.786667,-0.007843017578125
18.793333,-0.015655517578125
18.8,-0.039093017578125
18.806667,-0.078155517578125
18.813333,-0.117218017578125
18.82,-0.148468017578125
18.826667,-0.164093017578125
18.833333,-0.164093017578125
18.84,-0.156280517578125
18.846667,-0.156280517578125
18.853333,-0.148468017578125
18.86,-0.156280517578125
18.866667,-0.156280517578125
18.873333,-0.156280517578125
18.88,-0.140655517578125
18.886667,-0.062530517578125
18.893333,0.914031982421875
18.9,0.96875
18.906667,0.96875
18.913333,0.6015625
18.92,-0.0859375
18.926667,-0.484405517578125
18.933333,-0.562530517578125
18.94,-0.562530517578125
18.946667,-0.476593017578125
18.953333,-0.335968017578125
18.96,-0.250030517578125
18.966667,-0.210968017578125
18.973333,-0.210968017578125
18.98,-0.210968017578125
18.986667,-0.156280517578125
18.993333,-0.023468017578125
19.0,0.179656982421875
19.006667,0.296875
19.013333,0.3125
19.02,0.3125
19.026667,0.2734375
19.033333,0.25
19.04,0.2421875
19.046667,0.2421875
19.053333,0.25
19.06,0.25
19.066667,0.265625
19.073333,0.2890625
19.08,0.3203125
19.086667,0.3828125
19.093333,0.4453125
19.1,0.5078125
19.106667,0.5546875
19.113333,0.59375
19.12,0.6171875
19.126667,0.6171875
19.133333,0.6015625
19.14,0.578125
19.146667,0.5390625
19.153333,0.5
19.16,0.4609375
19.166667,0.4296875
19.173333,0.3984375
19.18,0.3515625
19.186667,0.2890625
19.193333,0.2265625
19.2,0.1640625
19.206667,0.1015625
19.213333,0.0390625
19.22,-0.0078125
19.226667,-0.046905517578125
19.233333,-0.062530517578125
19.24,-0.078155517578125
19.246667,-0.101593017578125
19.253333,-0.117218017578125
19.26,-0.125030517578125
19.266667,-0.117218017578125
19.273333,-0.101593017578125
19.28,-0.078155517578125
19.286667,-0.054718017578125
19.293333,-0.023468017578125
19.3,0.015594482421875
19.306667,0.0703125
19.313333,0.1015625
19.32,0.1171875
19.326667,0.109375
19.333333,0.09375
19.34,0.0703125
19.346667,0.046875
19.353333,0.0234375
19.36,-0.0078125
19.366667,-0.031280517578125
19.373333,-0.046905517578125
19.38,-0.039093017578125
19.386667,-0.015655517578125
19.393333,0.015594482421875
19.4,0.046875
19.406667,0.078125
19.413333,0.09375
19.42,0.09375
19.426667,0.0859375
19.433333,0.0703125
19.44,0.046875
19.446667,0.015625
19.453333,-0.015625
19.46,-0.039093017578125
19.466667,-0.031280517578125
19.473333,-0.007843017578125
19.48,0.031219482421875
19.486667,0.078125
19.493333,0.125
19.5,0.1640625
19.506667,0.203125
19.513333,0.2109375
19.52,0.203125
19.526667,0.171875
19.533333,0.140625
19.54,0.1015625
19.546667,0.0625
19.553333,0.0234375
19.56,-0.0078125
19.566667,-0.015655517578125
19.573333,-0.015655517578125
19.58,-0.015655517578125
19.586667,-3.0517578125e-05
19.593333,0.070281982421875
19.6,0.8515625
19.606667,0.90625
19.613333,0.90625
19.62,0.5546875
19.626667,-0.1171875
19.633333,-0.515655517578125
19.64,-0.601593017578125
19.646667,-0.601593017578125
19.653333,-0.429718017578125
19.66,-0.195343017578125
19.666667,-0.085968017578125
19.673333,-0.078155517578125
19.68,-0.078155517578125
19.686667,0.023406982421875
19.693333,0.171875
19.7,0.25
19.706667,0.25
19.713333,0.1484375
19.72,0.046875
19.726667,0.046875
19.733333,0.1640625
19.74,0.21875
19.746667,0.2421875
19.753333,0.25
19.76,0.25
19.766667,0.25
19.773333,0.2734375
19.78,0.3125
19.786667,0.359375
19.793333,0.390625
19.8,0.421875
19.806667,0.453125
19.813333,0.4921875
19.82,0.5234375
19.826667,0.5390625
19.833333,0.53125
19.84,0.53125
19.846667,0.5234375
19.853333,0.5078125
19.86,0.4921875
19.866667,0.4765625
19.873333,0.453125
19.88,0.40625
19.886667,0.328125
19.893333,0.2421875
19.9,0.15625
19.906667,0.078125
19.913333,0.0078125
19.92,-0.0546875
19.926667,-0.117218017578125
19.933333,-0.156280517578125
19.94,-0.164093017578125
19.946667,-0.156280517578125
19.953333,-0.156280517578125
19.96,-0.148468017578125
19.966667,-0.148468017578125
19.973333,-0.140655517578125
19.98,-0.132843017578125
19.986667,-0.125030517578125
19.993333,-0.109405517578125
20.0,-0.085968017578125
20.006667,-0.062530517578125
20.013333,-0.039093017578125
20.02,-0.031280517578125
20.026667,-0.023468017578125
20.033333,-0.023468017578125
20.04,-0.015655517578125
20.046667,-0.023468017578125
20.053333,-0.039093017578125
20.06,-0.054718017578125
20.066667,-0.070343017578125
20.073333,-0.078155517578125
20.08,-0.070343017578125
20.086667,-0.046905517578125
20.093333,-0.023468017578125
20.1,-0.015655517578125
20.106667,-0.007843017578125
20.113333,-3.0517578125e-05
20.12,-3.0517578125e-05
20.126667,0.007781982421875
20.133333,0.0078125
20.14,-0.0078125
20.146667,-0.023468017578125
20.153333,-0.023468017578125
20.16,-0.015655517578125
20.166667,0.007781982421875
20.173333,0.03125
20.18,0.046875
20.186667,0.0546875
20.193333,0.0625
20.2,0.0703125
20.206667,0.078125
20.213333,0.0859375
20.22,0.0859375
20.226667,0.0859375
20.233333,0.09375
20.24,0.109375
20.246667,0.125
20.253333,0.1484375
20.26,0.1484375
20.266667,0.1328125
20.273333,0.0859375
20.28,0.046875
20.286667,0.015625
20.293333,-0.015625
20.3,-0.046905517578125
20.306667,-0.070343017578125
20.313333,-0.101593017578125
20.32,-0.101593017578125
20.326667,-0.085968017578125
20.333333,-0.078155517578125
20.34,-0.046905517578125
20.346667,0.023406982421875
20.353333,0.8984375
20.36,0.9375
20.366667,0.9375
20.373333,0.5078125
20.38,-0.265625
20.386667,-0.617218017578125
20.393333,-0.617218017578125
20.4,-0.562530517578125
20.406667,-0.390655517578125
20.413333,-0.203155517578125
20.42,-0.117218017578125
20.426667,-0.093780517578125
20.433333,-0.039093017578125
20.44,0.007781982421875
20.446667,0.015625
20.453333,0.015625
20.46,-0.0234375
20.466667,-0.070343017578125
20.473333,-0.070343017578125
20.48,-0.039093017578125
20.486667,0.007781982421875
20.493333,0.03125
20.5,0.0546875
20.506667,0.078125
20.513333,0.1015625
20.52,0.1171875
20.526667,0.1328125
20.533333,0.1484375
20.54,0.171875
20.546667,0.1953125
20.553333,0.2109375
20.56,0.2421875
20.566667,0.28125
20.573333,0.328125
20.58,0.3671875
20.586667,0.40625
20.593333,0.421875
20.6,0.4296875
20.606667,0.421875
20.613333,0.40625
20.62,0.375
20.626667,0.3203125
20.633333,0.25
20.64,0.1796875
20.646667,0.1171875
20.653333,0.0625
20.66,0.015625
20.666667,-0.03125
20.673333,-0.085968017578125
20.68,-0.125030517578125
20.686667,-0.156280517578125
20.693333,-0.164093017578125
20.7,-0.171905517578125
20.706667,-0.164093017578125
20.713333,-0.156280517578125
20.72,-0.140655517578125
20.726667,-0.117218017578125
20.733333,-0.085968017578125
20.74,-0.054718017578125
20.746667,-0.031280517578125
20.753333,-0.007843017578125
20.76,0.015594482421875
20.766667,0.03125
20.773333,0.046875
20.78,0.0625
20.786667,0.0703125
20.793333,0.0859375
20.8,0.09375
20.806667,0.109375
20.813333,0.1171875
20.82,0.1328125
20.826667,0.1328125
20.833333,0.1171875
20.84,0.09375
20.846667,0.0703125
20.853333,0.0546875
20.86,0.0390625
20.866667,0.0234375
20.873333,0.0078125
20.88,-0.0078125
20.886667,-0.015655517578125
20.893333,-0.015655517578125
20.9,-0.007843017578125
20.906667,-3.0517578125e-05
20.913333,0.007781982421875
20.92,0.015625
20.926667,0.015625
20.933333,0.015625
20.94,0.0234375
20.946667,0.03125
20.953333,0.0234375
20.96,-0.0078125
20.966667,-0.039093017578125
20.973333,-0.062530517578125
20.98,-0.070343017578125
20.986667,-0.054718017578125
20.993333,-0.023468017578125
21.0,-3.0517578125e-05
21.006667,0.031219482421875
21.013333,0.0546875
21.02,0.0703125
21.026667,0.09375
21.033333,0.1015625
21.04,0.0859375
21.046667,0.046875
21.053333,0.0078125
21.06,-0.0234375
21.066667,-0.046905517578125
21.073333,-0.054718017578125
21.08,-0.054718017578125
21.086667,-0.054718017578125
21.093333,-0.046905517578125
21.1,-0.039093017578125
21.106667,-0.039093017578125
21.113333,-0.046905517578125
21.12,-0.070343017578125
21.126667,-0.093780517578125
21.133333,-0.109405517578125
21.14,0.101531982421875
21.146667,0.6796875
21.153333,-0.9921875
21.16,-0.9921875
21.166667,0.8828125
21.173333,0.3046875
21.18,-0.515625
21.186667,-0.882843017578125
21.193333,-0.882843017578125
21.2,-0.718780517578125
21.206667,-0.390655517578125
21.213333,-0.148468017578125
21.22,-0.062530517578125
21.226667,-0.062530517578125
21.233333,-0.062530517578125
21.24,-0.062530517578125
21.246667,-0.023468017578125
21.253333,0.031219482421875
21.26,0.0546875
21.266667,0.0546875
21.273333,0.0234375
21.28,0.0
21.286667,-0.007843017578125
21.293333,-3.0517578125e-05
21.3,0.023406982421875
21.306667,0.0546875
21.313333,0.078125
21.32,0.1015625
21.326667,0.1328125
21.333333,0.1796875
21.34,0.234375
21.346667,0.2890625
21.353333,0.3203125
21.36,0.3515625
21.366667,0.390625
21.373333,0.4375
21.38,0.484375
21.386667,0.515625
21.393333,0.53125
21.4,0.5390625
21.406667,0.546875
21.413333,0.5546875
21.42,0.5390625
21.426667,0.484375
21.433333,0.40625
21.44,0.3125
21.446667,0.21875
21.453333,0.140625
21.46,0.0546875
21.466667,-0.0234375
21.473333,-0.101593017578125
21.48,-0.148468017578125
21.486667,-0.171905517578125
21.493333,-0.164093017578125
21.5,-0.156280517578125
21.506667,-0.148468017578125
21.513333,-0.140655517578125
21.52,-0.140655517578125
21.526667,-0.148468017578125
21.533333,-0.164093017578125
21.54,-0.171905517578125
21.546667,-0.179718017578125
21.553333,-0.195343017578125
21.56,-0.210968017578125
21.566667,-0.218780517578125
21.573333,-0.218780517578125
21.58,-0.210968017578125
21.586667,-0.195343017578125
21.593333,-0.171905517578125
21.6,-0.148468017578125
21.606667,-0.132843017578125
21.613333,-0.109405517578125
21.62,-0.109405517578125
21.626667,-0.109405517578125
21.633333,-0.117218017578125
21.64,-0.132843017578125
21.646667,-0.156280517578125
21.653333,-0.179718017578125
21.66,-0.195343017578125
21.666667,-0.187530517578125
21.673333,-0.156280517578125
21.68,-0.109405517578125
21.686667,-0.070343017578125
21.693333,-0.046905517578125
21.7,-0.039093017578125
21.706667,-0.039093017578125
21.713333,-0.039093017578125
21.72,-0.054718017578125
21.726667,-0.070343017578125
21.733333,-0.078155517578125
21.74,-0.078155517578125
21.746667,-0.062530517578125
21.753333,-0.039093017578125
21.76,-0.015655517578125
21.766667,-3.0517578125e-05
21.773333,0.015594482421875
21.78,0.015625
21.786667,0.0078125
21.793333,-0.0078125
21.8,-0.023468017578125
21.806667,-0.039093017578125
21.813333,-0.039093017578125
21.82,-0.039093017578125
21.826667,-0.039093017578125
21.833333,-0.031280517578125
21.84,-0.015655517578125
21.846667,0.015594482421875
21.853333,0.0546875
21.86,0.09375
21.866667,0.125
21.873333,0.1328125
21.88,0.125
21.886667,0.1171875
21.893333,0.109375
21.9,0.0859375
21.906667,0.0546875
21.913333,0.0234375
21.92,-0.0078125
21.926667,-0.015655517578125
21.933333,-0.007843017578125
21.94,-0.007843017578125
21.946667,-0.015655517578125
21.953333,-0.031280517578125
21.96,-0.039093017578125
21.966667,-0.031280517578125
21.973333,0.039031982421875
21.98,0.8828125
21.986667,0.890625
21.993333,0.890625
22.0,0.484375
22.006667,-0.265625
22.013333,-0.617218017578125
22.02,-0.617218017578125
22.026667,-0.500030517578125
22.033333,-0.226593017578125
22.04,-0.046905517578125
22.046667,-0.039093017578125
22.053333,-0.039093017578125
22.06,-0.046905517578125
22.066667,-0.046905517578125
22.073333,-0.015655517578125
22.08,0.078094482421875
22.086667,0.2109375
22.093333,0.28125
22.1,0.296875
22.106667,0.3046875
22.113333,0.3046875
22.12,0.3046875
22.126667,0.3046875
22.133333,0.296875
22.14,0.2890625
22.146667,0.28125
22.153333,0.2890625
22.16,0.3125
22.166667,0.3515625
22.173333,0.3984375
22.18,0.4453125
22.186667,0.5
22.193333,0.5703125
22.2,0.6328125
22.206667,0.6875
22.213333,0.7109375
22.22,0.703125
22.226667,0.6953125
22.233333,0.671875
22.24,0.6328125
22.246667,0.578125
22.253333,0.5078125
22.26,0.4375
22.266667,0.375
22.273333,0.3125
22.28,0.234375
22.286667,0.1640625
22.293333,0.1015625
22.3,0.046875
22.306667,0.0
22.313333,-0.046905517578125
22.32,-0.078155517578125
22.326667,-0.101593017578125
22.333333,-0.109405517578125
22.34,-0.109405517578125
22.346667,-0.109405517578125
22.353333,-0.101593017578125
22.36,-0.085968017578125
22.366667,-0.062530517578125
22.373333,-0.046905517578125
22.38,-0.031280517578125
22.386667,-0.015655517578125
22.393333,-0.007843017578125
22.4,0.007781982421875
22.406667,0.0078125
22.413333,0.0
22.42,-0.007843017578125
22.426667,-0.023468017578125
22.433333,-0.023468017578125
22.44,-0.023468017578125
22.446667,-0.023468017578125
22.453333,-0.015655517578125
22.46,-3.0517578125e-05
22.466667,0.023406982421875
22.473333,0.0390625
22.48,0.0390625
22.486667,0.0234375
22.493333,-0.0078125
22.5,-0.031280517578125
22.506667,-0.062530517578125
22.513333,-0.085968017578125
22.52,-0.093780517578125
22.526667,-0.085968017578125
22.533333,-0.054718017578125
22.54,-0.023468017578125
22.546667,-3.0517578125e-05
22.553333,-3.0517578125e-05
22.56,-3.0517578125e-05
22.566667,-0.007843017578125
22.573333,-0.015655517578125
22.58,-0.031280517578125
22.586667,-0.054718017578125
22.593333,-0.070343017578125
22.6,-0.070343017578125
22.606667,-0.046905517578125
22.613333,-0.015655517578125
22.62,0.007781982421875
22.626667,0.0078125
22.633333,0.0
22.64,-0.007843017578125
22.646667,-0.015655517578125
22.653333,-0.031280517578125
22.66,-0.054718017578125
22.666667,-0.085968017578125
22.673333,-0.093780517578125
22.68,-0.078155517578125
22.686667,-0.054718017578125
22.693333,-0.015655517578125
22.7,0.023406982421875
22.706667,0.0625
22.713333,0.1015625
22.72,0.140625
22.726667,0.1484375
22.733333,0.1328125
22.74,0.09375
22.746667,0.046875
22.753333,0.0
22.76,-0.031280517578125
22.766667,-0.062530517578125
22.773333,-0.078155517578125
22.78,-0.093780517578125
22.786667,-0.101593017578125
22.793333,-0.101593017578125
22.8,-0.093780517578125
22.806667,-0.078155517578125
22.813333,0.226531982421875
22.82,0.734375
22.826667,-0.984375
22.833333,-0.984375
22.84,0.6796875
22.846667,-0.0625
22.853333,-0.500030517578125
22.86,-0.539093017578125
22.866667,-0.539093017578125
22.873333,-0.421905517578125
22.88,-0.281280517578125
22.886667,-0.234405517578125
22.893333,-0.148468017578125
22.9,-0.007843017578125
22.906667,0.070281982421875
22.913333,0.078125
22.92,0.0859375
22.926667,0.15625
22.933333,0.2265625
22.94,0.2578125
22.946667,0.2578125
22.953333,0.203125
22.96,0.140625
22.966667,0.1171875
22.973333,0.109375
22.98,0.1328125
22.986667,0.1640625
22.993333,0.1953125
23.0,0.234375
23.006667,0.2890625
23.013333,0.359375
23.02,0.4296875
23.026667,0.484375
23.033333,0.53125
23.04,0.5625
23.046667,0.578125
23.053333,0.5859375
23.06,0.59375
23.066667,0.6015625
23.073333,0.6171875
23.08,0.6328125
23.086667,0.6328125
23.093333,0.609375
23.1,0.5390625
23.106667,0.4609375
23.113333,0.3671875
23.12,0.2734375
23.126667,0.1640625
23.133333,0.0390625
23.14,-0.0703125
23.146667,-0.140655517578125
23.153333,-0.171905517578125
23.16,-0.171905517578125
23.166667,-0.164093017578125
23.173333,-0.148468017578125
23.18,-0.125030517578125
23.186667,-0.109405517578125
23.193333,-0.101593017578125
23.2,-0.093780517578125
23.206667,-0.093780517578125
23.213333,-0.101593017578125
23.22,-0.125030517578125
23.226667,-0.140655517578125
23.233333,-0.156280517578125
23.24,-0.156280517578125
23.246667,-0.148468017578125
23.253333,-0.132843017578125
23.26,-0.109405517578125
23.266667,-0.093780517578125
23.273333,-0.070343017578125
23.28,-0.054718017578125
23.286667,-0.031280517578125
23.293333,-0.015655517578125
23.3,-0.007843017578125
23.306667,-3.0517578125e-05
23.313333,-3.0517578125e-05
23.32,-3.0517578125e-05
23.326667,-0.007843017578125
23.333333,-0.007843017578125
23.34,-0.007843017578125
23.346667,-3.0517578125e-05
23.353333,-3.0517578125e-05
23.36,-0.007843017578125
23.366667,-0.015655517578125
23.373333,-0.023468017578125
23.38,-0.023468017578125
23.386667,-0.023468017578125
23.393333,-0.023468017578125
23.4,-0.015655517578125
23.406667,-0.007843017578125
23.413333,0.007781982421875
23.42,0.0078125
23.426667,0.0078125
23.433333,0.0
23.44,-0.007843017578125
23.446667,-0.023468017578125
23.453333,-0.046905517578125
23.46,-0.062530517578125
23.466667,-0.062530517578125
23.473333,-0.046905517578125
23.48,-0.023468017578125
23.486667,-0.007843017578125
23.493333,-0.007843017578125
23.5,-0.007843017578125
23.506667,-0.007843017578125
23.513333,-0.007843017578125
23.52,-0.023468017578125
23.526667,-0.039093017578125
23.533333,-0.046905517578125
23.54,-0.046905517578125
23.546667,-0.039093017578125
23.553333,-0.023468017578125
23.56,-3.0517578125e-05
23.566667,0.023406982421875
23.573333,0.0390625
23.58,0.0546875
23.586667,0.046875
23.593333,0.046875
23.6,0.0390625
23.606667,0.03125
23.613333,0.0234375
23.62,0.0
23.626667,-0.031280517578125
23.633333,-0.054718017578125
23.64,-0.078155517578125
23.646667,-0.101593017578125
23.653333,-0.125030517578125
23.66,0.062469482421875
23.666667,0.6484375
23.673333,-0.9921875
23.68,-0.9921875
23.686667,0.953125
23.693333,0.421875
23.7,-0.4296875
23.706667,-0.804718017578125
23.713333,-0.804718017578125
23.72,-0.742218017578125
23.726667,-0.554718017578125
23.733333,-0.289093017578125
23.74,-0.039093017578125
23.746667,0.156219482421875
23.753333,0.2421875
23.76,0.2421875
23.766667,0.21875
23.773333,0.15625
23.78,0.1015625
23.786667,0.0859375
23.793333,0.0859375
23.8,0.125
23.806667,0.1640625
23.813333,0.1875
23.82,0.203125
23.826667,0.203125
23.833333,0.203125
23.84,0.203125
23.846667,0.2421875
23.853333,0.2890625
23.86,0.3359375
23.866667,0.3828125
23.873333,0.4296875
23.88,0.484375
23.886667,0.5390625
23.893333,0.59375
23.9,0.625
23.906667,0.6328125
23.913333,0.625
23.92,0.6171875
23.926667,0.6015625
23.933333,0.5546875
23.94,0.4921875
23.946667,0.421875
23.953333,0.3515625
23.96,0.28125
23.966667,0.21875
23.973333,0.1484375
23.98,0.0859375
23.986667,0.046875
23.993333,0.0234375
24.0,0.0078125
24.006667,0.0
24.013333,-0.023468017578125
24.02,-0.046905517578125
24.026667,-0.078155517578125
24.033333,-0.093780517578125
24.04,-0.101593017578125
24.046667,-0.101593017578125
24.053333,-0.101593017578125
24.06,-0.109405517578125
24.066667,-0.101593017578125
24.073333,-0.078155517578125
24.08,-0.039093017578125
24.086667,-3.0517578125e-05
24.093333,0.023406982421875
24.1,0.0390625
24.106667,0.046875
24.113333,0.0546875
24.12,0.0546875
24.126667,0.0546875
24.133333,0.0390625
24.14,0.015625
24.146667,-0.0078125
24.153333,-0.023468017578125
24.16,-0.031280517578125
24.166667,-0.031280517578125
24.173333,-0.023468017578125
24.18,-0.015655517578125
24.186667,-0.007843017578125
24.193333,-0.007843017578125
24.2,-3.0517578125e-05
24.206667,0.007781982421875
24.213333,0.015625
24.22,0.015625
24.226667,0.015625
24.233333,0.0078125
24.24,0.0
24.246667,-0.015655517578125
24.253333,-0.023468017578125
24.26,-0.031280517578125
24.266667,-0.046905517578125
24.273333,-0.054718017578125
24.28,-0.046905517578125
24.286667,-0.039093017578125
24.293333,-0.031280517578125
24.3,-0.015655517578125
24.306667,-0.007843017578125
24.313333,-0.007843017578125
24.32,-0.015655517578125
24.326667,-0.023468017578125
24.333333,-0.031280517578125
24.34,-0.031280517578125
24.346667,-0.039093017578125
24.353333,-0.046905517578125
24.36,-0.046905517578125
24.366667,-0.031280517578125
24.373333,-0.007843017578125
24.38,0.039031982421875
24.386667,0.0859375
24.393333,0.1171875
24.4,0.15625
24.406667,0.1875
24.413333,0.1796875
24.42,0.15625
24.426667,0.1171875
24.433333,0.0546875
24.44,0.0
24.446667,-0.054718017578125
24.453333,-0.093780517578125
24.46,-0.125030517578125
24.466667,-0.132843017578125
24.473333,-0.109405517578125
24.48,-0.078155517578125
24.486667,0.218719482421875
24.493333,0.7265625
24.5,-0.9609375
24.506667,-0.9609375
24.513333,0.9140625
24.52,0.296875
24.526667,-0.546875
24.533333,-0.890655517578125
24.54,-0.890655517578125
24.546667,-0.671905517578125
24.553333,-0.281280517578125
24.56,-0.015655517578125
24.566667,0.078094482421875
24.573333,0.078125
24.58,0.03125
24.586667,-0.0234375
24.593333,-0.023468017578125
24.6,0.039031982421875
24.606667,0.1015625
24.613333,0.1328125
24.62,0.140625
24.626667,0.140625
24.633333,0.171875
24.64,0.203125
24.646667,0.2265625
24.653333,0.2421875
24.66,0.25
24.666667,0.25
24.673333,0.28125
24.68,0.3359375
24.686667,0.3984375
24.693333,0.4375
24.7,0.484375
24.706667,0.53125
24.713333,0.5859375
24.72,0.6484375
24.726667,0.7109375
24.733333,0.7421875
24.74,0.7578125
24.746667,0.75
24.753333,0.71875
24.76,0.6875
24.766667,0.640625
24.773333,0.5859375
24.78,0.5234375
24.786667,0.4609375
24.793333,0.3828125
24.8,0.296875
24.806667,0.2265625
24.813333,0.1640625
24.82,0.1015625
24.826667,0.03125
24.833333,-0.046875
24.84,-0.117218017578125
24.846667,-0.164093017578125
24.853333,-0.187530517578125
24.86,-0.195343017578125
24.866667,-0.203155517578125
24.873333,-0.210968017578125
24.88,-0.203155517578125
24.886667,-0.179718017578125
24.893333,-0.148468017578125
24.9,-0.117218017578125
24.906667,-0.109405517578125
24.913333,-0.117218017578125
24.92,-0.132843017578125
24.926667,-0.148468017578125
24.933333,-0.156280517578125
24.94,-0.156280517578125
24.946667,-0.164093017578125
24.953333,-0.171905517578125
24.96,-0.171905517578125
24.966667,-0.148468017578125
24.973333,-0.125030517578125
24.98,-0.101593017578125
24.986667,-0.093780517578125
24.993333,-0.109405517578125
25.0,-0.125030517578125
25.006667,-0.140655517578125
25.013333,-0.156280517578125
25.02,-0.164093017578125
25.026667,-0.179718017578125
25.033333,-0.195343017578125
25.04,-0.210968017578125
25.046667,-0.210968017578125
25.053333,-0.187530517578125
25.06,-0.171905517578125
25.066667,-0.156280517578125
25.073333,-0.156280517578125
25.08,-0.148468017578125
25.086667,-0.140655517578125
25.093333,-0.125030517578125
25.1,-0.132843017578125
25.106667,-0.148468017578125
25.113333,-0.156280517578125
25.12,-0.156280517578125
25.126667,-0.132843017578125
25.133333,-0.101593017578125
25.14,-0.062530517578125
25.146667,-0.023468017578125
25.153333,0.007781982421875
25.16,0.046875
25.166667,0.0859375
25.173333,0.109375
25.18,0.1328125
25.186667,0.140625
25.193333,0.15625
25.2,0.1640625
25.206667,0.1640625
25.213333,0.1484375
25.22,0.125
25.226667,0.109375
25.233333,0.09375
25.24,0.0625
25.246667,0.015625
25.253333,-0.0546875
25.26,-0.109405517578125
25.266667,-0.132843017578125
25.273333,-0.148468017578125
25.28,-0.164093017578125
25.286667,-0.171905517578125
25.293333,0.281219482421875
25.3,0.765625
25.306667,0.96875
25.313333,0.96875
25.32,0.5078125
25.326667,-0.34375
25.333333,-0.750030517578125
25.34,-0.773468017578125
25.346667,-0.773468017578125
25.353333,-0.664093017578125
25.36,-0.460968017578125
25.366667,-0.257843017578125
25.373333,-0.085968017578125
25.38,0.007781982421875
25.386667,0.03125
25.393333,0.0390625
25.4,0.0390625
25.406667,0.0390625
25.413333,0.0703125
25.42,0.1484375
25.426667,0.203125
25.433333,0.203125
25.44,0.203125
25.446667,0.203125
25.453333,0.1953125
25.46,0.203125
25.466667,0.2265625
25.473333,0.25
25.48,0.28125
25.486667,0.3125
25.493333,0.3359375
25.5,0.3828125
25.506667,0.4375
25.513333,0.5
25.52,0.546875
25.526667,0.5859375
25.533333,0.6328125
25.54,0.671875
25.546667,0.7109375
25.553333,0.7265625
25.56,0.71875
25.566667,0.6875
25.573333,0.65625
25.58,0.6171875
25.586667,0.546875
25.593333,0.453125
25.6,0.359375
25.606667,0.265625
25.613333,0.1953125
25.62,0.1171875
25.626667,0.046875
25.633333,-0.0234375
25.64,-0.078155517578125
25.646667,-0.109405517578125
25.653333,-0.117218017578125
25.66,-0.125030517578125
25.666667,-0.117218017578125
25.673333,-0.109405517578125
25.68,-0.093780517578125
25.686667,-0.070343017578125
25.693333,-0.039093017578125
25.7,-0.023468017578125
25.706667,-0.031280517578125
25.713333,-0.046905517578125
25.72,-0.078155517578125
25.726667,-0.093780517578125
25.733333,-0.101593017578125
25.74,-0.117218017578125
25.746667,-0.125030517578125
25.753333,-0.125030517578125
25.76,-0.109405517578125
25.766667,-0.093780517578125
25.773333,-0.085968017578125
25.78,-0.085968017578125
25.786667,-0.101593017578125
25.793333,-0.109405517578125
25.8,-0.117218017578125
25.806667,-0.125030517578125
25.813333,-0.132843017578125
25.82,-0.132843017578125
25.826667,-0.132843017578125
25.833333,-0.117218017578125
25.84,-0.101593017578125
25.846667,-0.070343017578125
25.853333,-0.039093017578125
25.86,-0.007843017578125
25.866667,0.015594482421875
25.873333,0.0390625
25.88,0.046875
25.886667,0.0546875
25.893333,0.0546875
25.9,0.0546875
25.906667,0.046875
25.913333,0.0390625
25.92,0.0390625
25.926667,0.0390625
25.933333,0.0546875
25.94,0.0703125
25.946667,0.0859375
25.953333,0.0859375
25.96,0.078125
25.966667,0.0703125
25.973333,0.0546875
25.98,0.046875
25.986667,0.0234375
25.993333,0.0
26.0,-0.031280517578125
26.006667,-0.046905517578125
26.013333,-0.054718017578125
26.02,-0.070343017578125
26.026667,-0.078155517578125
26.033333,0.203094482421875
26.04,0.8046875
26.046667,-0.859375
26.053333,-0.859375
26.06,0.8671875
26.066667,0.1640625
26.073333,-0.6015625
26.08,-0.937530517578125
26.086667,-0.937530517578125
26.093333,-0.750030517578125
26.1,-0.398468017578125
26.106667,-0.125030517578125
26.113333,0.015594482421875
26.12,0.0625
26.126667,0.0625
26.133333,0.0390625
26.14,0.0078125
26.146667,0.0078125
26.153333,0.09375
26.16,0.234375
26.166667,0.3046875
26.173333,0.3046875
26.18,0.296875
26.186667,0.2890625
26.193333,0.28125
26.2,0.2734375
26.206667,0.2734375
26.213333,0.28125
26.22,0.2890625
26.226667,0.3046875
26.233333,0.3203125
26.24,0.34375
26.246667,0.40625
26.253333,0.4765625
26.26,0.5390625
26.266667,0.59375
26.273333,0.625
26.28,0.6484375
26.286667,0.671875
26.293333,0.6640625
26.3,0.6328125
26.306667,0.5703125
26.313333,0.4921875
26.32,0.4140625
26.326667,0.3515625
26.333333,0.296875
26.34,0.2421875
26.346667,0.1953125
26.353333,0.1484375
26.36,0.109375
26.366667,0.078125
26.373333,0.0546875
26.38,0.0234375
26.386667,-0.015625
26.393333,-0.046905517578125
26.4,-0.070343017578125
26.406667,-0.070343017578125
26.413333,-0.062530517578125
26.42,-0.046905517578125
26.426667,-0.031280517578125
26.433333,-0.015655517578125
26.44,0.007781982421875
26.446667,0.03125
26.453333,0.046875
26.46,0.0546875
26.466667,0.046875
26.473333,0.0390625
26.48,0.03125
26.486667,0.03125
26.493333,0.0234375
26.5,0.015625
26.506667,0.0
26.513333,-0.023468017578125
26.52,-0.046905517578125
26.526667,-0.062530517578125
26.533333,-0.070343017578125
26.54,-0.078155517578125
26.546667,-0.085968017578125
26.553333,-0.093780517578125
26.56,-0.085968017578125
26.566667,-0.062530517578125
26.573333,-0.046905517578125
26.58,-0.031280517578125
26.586667,-0.023468017578125
26.593333,-0.015655517578125
26.6,-0.007843017578125
26.606667,0.007781982421875
26.613333,0.03125
26.62,0.0546875
26.626667,0.078125
26.633333,0.1015625
26.64,0.1171875
26.646667,0.125
26.653333,0.1328125
26.66,0.1171875
26.666667,0.0859375
26.673333,0.046875
26.68,0.0078125
26.686667,-0.0234375
26.693333,-0.054718017578125
26.7,-0.078155517578125
26.706667,-0.085968017578125
26.713333,-0.078155517578125
26.72,0.226531982421875
26.726667,0.890625
26.733333,-0.7421875
26.74,-0.7421875
26.746667,0.890625
26.753333,0.125
26.76,-0.5078125
26.766667,-0.750030517578125
26.773333,-0.750030517578125
26.78,-0.742218017578125
26.786667,-0.601593017578125
26.793333,-0.335968017578125
26.8,-0.125030517578125
26.806667,-0.023468017578125
26.813333,0.007781982421875
26.82,0.0234375
26.826667,0.046875
26.833333,0.0703125
26.84,0.0859375
26.846667,0.0859375
26.853333,0.09375
26.86,0.09375
26.866667,0.09375
26.873333,0.109375
26.88,0.125
26.886667,0.15625
26.893333,0.203125
26.9,0.25
26.906667,0.296875
26.913333,0.3515625
26.92,0.4140625
26.926667,0.484375
26.933333,0.53125
26.94,0.5703125
26.946667,0.5859375
26.953333,0.59375
26.96,0.59375
26.966667,0.59375
26.973333,0.59375
26.98,0.6015625
26.986667,0.6015625
26.993333,0.6015625
27.0,0.59375
27.006667,0.5625
27.013333,0.515625
27.02,0.4375
27.026667,0.34375
27.033333,0.234375
27.04,0.1171875
27.046667,0.015625
27.053333,-0.0546875
27.06,-0.093780517578125
27.066667,-0.101593017578125
27.073333,-0.101593017578125
27.08,-0.085968017578125
27.086667,-0.078155517578125
27.093333,-0.078155517578125
27.1,-0.078155517578125
27.106667,-0.085968017578125
27.113333,-0.101593017578125
27.12,-0.132843017578125
27.126667,-0.156280517578125
27.133333,-0.164093017578125
27.14,-0.132843017578125
27.146667,-0.093780517578125
27.153333,-0.054718017578125
27.16,-0.023468017578125
27.166667,0.007781982421875
27.173333,0.0234375
27.18,0.03125
27.186667,0.03125
27.193333,0.0
27.2,-0.039093017578125
27.206667,-0.078155517578125
27.213333,-0.117218017578125
27.22,-0.140655517578125
27.226667,-0.140655517578125
27.233333,-0.140655517578125
27.24,-0.132843017578125
27.246667,-0.117218017578125
27.253333,-0.093780517578125
27.26,-0.070343017578125
27.266667,-0.046905517578125
27.273333,-0.039093017578125
27.28,-0.031280517578125
27.286667,-0.023468017578125
27.293333,-0.007843017578125
27.3,0.015594482421875
27.306667,0.03125
27.313333,0.046875
27.32,0.0703125
27.326667,0.09375
27.333333,0.1171875
27.34,0.140625
27.346667,0.1328125
27.353333,0.109375
27.36,0.0625
27.366667,0.0234375
27.373333,-0.015625
27.38,-0.054718017578125
27.386667,-0.210968017578125
27.393333,-0.210968017578125
27.4,-0.070343017578125
27.406667,0.359344482421875
27.413333,0.9921875
27.42,-0.671875
27.426667,-0.671875
27.433333,0.9609375
27.44,0.0625
27.446667,-0.6484375
27.453333,-0.835968017578125
27.46,-0.835968017578125
27.466667,-0.664093017578125
27.473333,-0.406280517578125
27.48,-0.234405517578125
27.486667,-0.078155517578125
27.493333,0.054656982421875
27.5,0.109375
27.506667,0.109375
27.513333,0.078125
27.52,0.0390625
27.526667,0.0234375
27.533333,0.0234375
27.54,0.0390625
27.546667,0.078125
27.553333,0.1328125
27.56,0.1796875
27.566667,0.21875
27.573333,0.265625
27.58,0.3203125
27.586667,0.3671875
27.593333,0.4140625
27.6,0.4375
27.606667,0.453125
27.613333,0.46875
27.62,0.5078125
27.626667,0.546875
27.633333,0.5859375
27.64,0.625
27.646667,0.65625
27.653333,0.6796875
27.66,0.6875
27.666667,0.6796875
27.673333,0.6640625
27.68,0.6328125
27.686667,0.578125
27.693333,0.515625
27.7,0.453125
27.706667,0.3984375
27.713333,0.3203125
27.72,0.234375
27.726667,0.140625
27.733333,0.0625
27.74,0.0078125
27.746667,-0.015625
27.753333,-0.031280517578125
27.76,-0.046905517578125
27.766667,-0.054718017578125
27.773333,-0.054718017578125
27.78,-0.046905517578125
27.786667,-0.046905517578125
27.793333,-0.039093017578125
27.8,-0.046905517578125
27.806667,-0.046905517578125
27.813333,-0.062530517578125
27.82,-0.078155517578125
27.826667,-0.078155517578125
27.833333,-0.078155517578125
27.84,-0.062530517578125
27.846667,-0.046905517578125
27.853333,-0.039093017578125
27.86,-0.023468017578125
27.866667,-0.007843017578125
27.873333,0.015594482421875
27.88,0.015625
27.886667,0.0
27.893333,-0.023468017578125
27.9,-0.054718017578125
27.906667,-0.078155517578125
27.913333,-0.093780517578125
27.92,-0.109405517578125
27.926667,-0.109405517578125
27.933333,-0.093780517578125
27.94,-0.062530517578125
27.946667,-0.023468017578125
27.953333,0.007781982421875
27.96,0.0234375
27.966667,0.0234375
27.973333,0.015625
27.98,0.015625
27.986667,0.015625
27.993333,0.015625
28.0,0.0078125
28.006667,0.0
28.013333,-0.007843017578125
28.02,-0.023468017578125
28.026667,-0.039093017578125
28.033333,-0.062530517578125
28.04,-0.085968017578125
28.046667,-0.109405517578125
28.053333,-0.125030517578125
28.06,-0.140655517578125
28.066667,-0.140655517578125
28.073333,-0.140655517578125
28.08,-0.132843017578125
28.086667,-0.109405517578125
28.093333,-0.031280517578125
28.1,0.773406982421875
28.106667,0.7890625
28.113333,0.7890625
28.12,0.40625
28.126667,-0.3125
28.133333,-0.656280517578125
28.14,-0.656280517578125
28.146667,-0.617218017578125
28.153333,-0.414093017578125
28.16,-0.117218017578125
28.166667,0.054656982421875
28.173333,0.1015625
28.18,0.1015625
28.186667,0.09375
28.193333,0.09375
28.2,0.1875
28.206667,0.2734375
28.213333,0.2734375
28.22,0.234375
28.226667,0.1640625
28.233333,0.1328125
28.24,0.1328125
28.246667,0.1484375
28.253333,0.1796875
28.26,0.203125
28.266667,0.2265625
28.273333,0.25
28.28,0.28125
28.286667,0.3359375
28.293333,0.3984375
28.3,0.453125
28.306667,0.5
28.313333,0.5390625
28.32,0.578125
28.326667,0.6171875
28.333333,0.640625
28.34,0.6484375
28.346667,0.6328125
28.353333,0.6015625
28.36,0.5703125
28.366667,0.5390625
28.373333,0.5
28.38,0.4453125
28.386667,0.3671875
28.393333,0.28125
28.4,0.2109375
28.406667,0.1640625
28.413333,0.109375
28.42,0.046875
28.426667,-0.0234375
28.433333,-0.085968017578125
28.44,-0.125030517578125
28.446667,-0.140655517578125
28.453333,-0.140655517578125
28.46,-0.132843017578125
28.466667,-0.125030517578125
28.473333,-0.117218017578125
28.48,-0.085968017578125
28.486667,-0.054718017578125
28.493333,-0.023468017578125
28.5,-0.015655517578125
28.506667,-0.031280517578125
28.513333,-0.054718017578125
28.52,-0.078155517578125
28.526667,-0.085968017578125
28.533333,-0.085968017578125
28.54,-0.078155517578125
28.546667,-0.070343017578125
28.553333,-0.070343017578125
28.56,-0.070343017578125
28.566667,-0.070343017578125
28.573333,-0.070343017578125
28.58,-0.078155517578125
28.586667,-0.085968017578125
28.593333,-0.101593017578125
28.6,-0.109405517578125
28.606667,-0.109405517578125
28.613333,-0.093780517578125
28.62,-0.070343017578125
28.626667,-0.046905517578125
28.633333,-0.023468017578125
28.64,-0.015655517578125
28.646667,-0.015655517578125
28.653333,-0.023468017578125
28.66,-0.031280517578125
28.666667,-0.031280517578125
28.673333,-0.015655517578125
28.68,-3.0517578125e-05
28.686667,0.023406982421875
28.693333,0.0625
28.7,0.109375
28.706667,0.140625
28.713333,0.15625
28.72,0.1640625
28.726667,0.1484375
28.733333,0.1328125
28.74,0.1015625
28.746667,0.0625
28.753333,0.0234375
28.76,0.0
28.766667,-0.015655517578125
28.773333,-0.031280517578125
28.78,-0.054718017578125
28.786667,-0.062530517578125
28.793333,0.367156982421875
28.8,0.9765625
28.806667,-0.7421875
28.813333,-0.7421875
28.82,0.859375
28.826667,0.0703125
28.833333,-0.421875
28.84,-0.523468017578125
28.846667,-0.523468017578125
28.853333,-0.445343017578125
28.86,-0.343780517578125
28.866667,-0.265655517578125
28.873333,-0.140655517578125
28.88,0.023406982421875
28.886667,0.1484375
28.893333,0.21875
28.9,0.2421875
28.906667,0.2421875
28.913333,0.203125
28.92,0.1484375
28.926667,0.125
28.933333,0.125
28.94,0.1484375
28.946667,0.1796875
28.953333,0.203125
28.96,0.2109375
28.966667,0.21875
28.973333,0.234375
28.98,0.2578125
28.986667,0.296875
28.993333,0.34375
29.0,0.3828125
29.006667,0.421875
29.013333,0.46875
29.02,0.5
29.026667,0.5234375
29.033333,0.5390625
29.04,0.546875
29.046667,0.546875
29.053333,0.53125
29.06,0.5
29.066667,0.4765625
29.073333,0.453125
29.08,0.421875
29.086667,0.375
29.093333,0.3125
29.1,0.25
29.106667,0.1875
29.113333,0.125
29.12,0.0546875
29.126667,-0.0078125
29.133333,-0.054718017578125
29.14,-0.078155517578125
29.146667,-0.070343017578125
29.153333,-0.054718017578125
29.16,-0.039093017578125
29.166667,-0.023468017578125
29.173333,-3.0517578125e-05
29.18,0.015594482421875
29.186667,0.0390625
29.193333,0.046875
29.2,0.03125
29.206667,0.0
29.213333,-0.031280517578125
29.22,-0.062530517578125
29.226667,-0.070343017578125
29.233333,-0.070343017578125
29.24,-0.070343017578125
29.246667,-0.070343017578125
29.253333,-0.062530517578125
29.26,-0.046905517578125
29.266667,-0.023468017578125
29.273333,0.007781982421875
29.28,0.0234375
29.286667,0.0234375
29.293333,0.0
29.3,-0.031280517578125
29.306667,-0.062530517578125
29.313333,-0.085968017578125
29.32,-0.085968017578125
29.326667,-0.062530517578125
29.333333,-0.039093017578125
29.34,-0.023468017578125
29.346667,-0.015655517578125
29.353333,-3.0517578125e-05
29.36,0.023406982421875
29.366667,0.03125
29.373333,0.0078125
29.38,-0.0234375
29.386667,-0.046905517578125
29.393333,-0.054718017578125
29.4,-0.031280517578125
29.406667,-0.007843017578125
29.413333,0.015594482421875
29.42,0.0390625
29.426667,0.0546875
29.433333,0.0625
29.44,0.0625
29.446667,0.046875
29.453333,0.0234375
29.46,-0.0078125
29.466667,-0.039093017578125
29.473333,-0.062530517578125
29.48,-0.078155517578125
29.486667,-0.101593017578125
29.493333,-0.125030517578125
29.5,-0.156280517578125
29.506667,-0.179718017578125
29.513333,-0.195343017578125
29.52,-0.203155517578125
29.526667,-0.164093017578125
29.533333,0.617156982421875
29.54,0.828125
29.546667,0.828125
29.553333,0.4765625
29.56,-0.2109375
29.566667,-0.632843017578125
29.573333,-0.718780517578125
29.58,-0.718780517578125
29.586667,-0.554718017578125
29.593333,-0.265655517578125
29.6,-0.140655517578125
29.606667,-0.140655517578125
29.613333,-0.156280517578125
29.62,-0.179718017578125
29.626667,-0.187530517578125
29.633333,-0.187530517578125
29.64,-0.164093017578125
29.646667,-0.101593017578125
29.653333,-3.0517578125e-05
29.66,0.117156982421875
29.666667,0.171875
29.673333,0.1796875
29.68,0.1875
29.686667,0.1875
29.693333,0.1953125
29.7,0.203125
29.706667,0.2109375
29.713333,0.21875
29.72,0.2265625
29.726667,0.234375
29.733333,0.2421875
29.74,0.2578125
29.746667,0.28125
29.753333,0.3046875
29.76,0.3359375
29.766667,0.390625
29.773333,0.4453125
29.78,0.5078125
29.786667,0.546875
29.793333,0.5625
29.8,0.5546875
29.806667,0.5078125
29.813333,0.4296875
29.82,0.3203125
29.826667,0.1953125
29.833333,0.0546875
29.84,-0.0703125
29.846667,-0.171905517578125
29.853333,-0.250030517578125
29.86,-0.312530517578125
29.866667,-0.359405517578125
29.873333,-0.382843017578125
29.88,-0.398468017578125
29.886667,-0.414093017578125
29.893333,-0.421905517578125
29.9,-0.437530517578125
29.906667,-0.437530517578125
29.913333,-0.429718017578125
29.92,-0.406280517578125
29.926667,-0.382843017578125
29.933333,-0.359405517578125
29.94,-0.328155517578125
29.946667,-0.289093017578125
29.953333,-0.250030517578125
29.96,-0.234405517578125
29.966667,-0.234405517578125
29.973333,-0.242218017578125
29.98,-0.250030517578125
29.986667,-0.257843017578125
29.993333,-0.281280517578125
30.0,-0.320343017578125
30.006667,-0.359405517578125
30.013333,-0.382843017578125
30.02,-0.375030517578125
30.026667,-0.359405517578125
30.033333,-0.335968017578125
30.04,-0.304718017578125
30.046667,-0.265655517578125
30.053333,-0.218780517578125
30.06,-0.187530517578125
30.066667,-0.156280517578125
30.073333,0.664031982421875
